00:00:00.000	0.185
00:00:00.001	0.185
00:00:00.002	0.169
00:00:00.004	0.185
00:00:00.005	0.185
00:00:00.006	0.185
00:00:00.008	0.185
00:00:00.009	0.185
00:00:00.011	0.185
00:00:00.012	0.200
00:00:00.013	0.200
00:00:00.015	0.192
00:00:00.016	0.200
00:00:00.018	0.192
00:00:00.019	0.192
00:00:00.020	0.208
00:00:00.022	0.215
00:00:00.023	0.208
00:00:00.025	0.215
00:00:00.026	0.215
00:00:00.027	0.200
00:00:00.029	0.208
00:00:00.030	0.208
00:00:00.031	0.208
00:00:00.033	0.208
00:00:00.034	0.200
00:00:00.036	0.192
00:00:00.037	0.192
00:00:00.038	0.208
00:00:00.040	0.208
00:00:00.041	0.192
00:00:00.043	0.215
00:00:00.044	0.223
00:00:00.045	0.223
00:00:00.047	0.223
00:00:00.048	0.223
00:00:00.050	0.231
00:00:00.051	0.231
00:00:00.052	0.223
00:00:00.054	0.231
00:00:00.055	0.231
00:00:00.056	0.231
00:00:00.058	0.223
00:00:00.059	0.231
00:00:00.061	0.215
00:00:00.062	0.223
00:00:00.063	0.231
00:00:00.065	0.223
00:00:00.066	0.223
00:00:00.068	0.223
00:00:00.069	0.223
00:00:00.070	0.223
00:00:00.072	0.223
00:00:00.073	0.215
00:00:00.075	0.215
00:00:00.076	0.215
00:00:00.077	0.223
00:00:00.079	0.223
00:00:00.080	0.215
00:00:00.081	0.215
00:00:00.083	0.208
00:00:00.084	0.208
00:00:00.086	0.223
00:00:00.087	0.215
00:00:00.088	0.208
00:00:00.090	0.223
00:00:00.091	0.215
00:00:00.093	0.208
00:00:00.094	0.223
00:00:00.095	0.223
00:00:00.097	0.215
00:00:00.098	0.208
00:00:00.100	0.223
00:00:00.101	0.223
00:00:00.102	0.215
00:00:00.104	0.223
00:00:00.105	0.215
00:00:00.106	0.208
00:00:00.108	0.215
00:00:00.109	0.223
00:00:00.111	0.223
00:00:00.112	0.215
00:00:00.113	0.223
00:00:00.115	0.223
00:00:00.116	0.223
00:00:00.118	0.223
00:00:00.119	0.215
00:00:00.120	0.231
00:00:00.122	0.223
00:00:00.123	0.231
00:00:00.125	0.223
00:00:00.126	0.231
00:00:00.127	0.231
00:00:00.129	0.223
00:00:00.130	0.223
00:00:00.131	0.238
00:00:00.133	0.246
00:00:00.134	0.231
00:00:00.136	0.231
00:00:00.137	0.238
00:00:00.138	0.231
00:00:00.140	0.231
00:00:00.141	0.231
00:00:00.143	0.223
00:00:00.144	0.215
00:00:00.145	0.215
00:00:00.147	0.215
00:00:00.148	0.223
00:00:00.150	0.231
00:00:00.151	0.223
00:00:00.152	0.223
00:00:00.154	0.231
00:00:00.155	0.246
00:00:00.156	0.238
00:00:00.158	0.246
00:00:00.159	0.262
00:00:00.161	0.246
00:00:00.162	0.246
00:00:00.163	0.254
00:00:00.165	0.246
00:00:00.166	0.238
00:00:00.168	0.238
00:00:00.169	0.231
00:00:00.170	0.223
00:00:00.172	0.223
00:00:00.173	0.223
00:00:00.175	0.215
00:00:00.176	0.215
00:00:00.177	0.215
00:00:00.179	0.223
00:00:00.180	0.231
00:00:00.181	0.231
00:00:00.183	0.254
00:00:00.184	0.262
00:00:00.186	0.277
00:00:00.187	0.277
00:00:00.188	0.269
00:00:00.190	0.277
00:00:00.191	0.262
00:00:00.193	0.262
00:00:00.194	0.262
00:00:00.195	0.269
00:00:00.197	0.277
00:00:00.198	0.285
00:00:00.200	0.262
00:00:00.201	0.254
00:00:00.202	0.254
00:00:00.204	0.262
00:00:00.205	0.246
00:00:00.206	0.262
00:00:00.208	0.277
00:00:00.209	0.262
00:00:00.211	0.262
00:00:00.212	0.277
00:00:00.213	0.277
00:00:00.215	0.277
00:00:00.216	0.277
00:00:00.218	0.277
00:00:00.219	0.285
00:00:00.220	0.292
00:00:00.222	0.292
00:00:00.223	0.292
00:00:00.225	0.300
00:00:00.226	0.285
00:00:00.227	0.285
00:00:00.229	0.292
00:00:00.230	0.308
00:00:00.231	0.323
00:00:00.233	0.315
00:00:00.234	0.300
00:00:00.236	0.285
00:00:00.237	0.300
00:00:00.238	0.308
00:00:00.240	0.300
00:00:00.241	0.300
00:00:00.243	0.285
00:00:00.244	0.277
00:00:00.245	0.285
00:00:00.247	0.292
00:00:00.248	0.285
00:00:00.250	0.300
00:00:00.251	0.285
00:00:00.252	0.292
00:00:00.254	0.308
00:00:00.255	0.315
00:00:00.256	0.315
00:00:00.258	0.308
00:00:00.259	0.308
00:00:00.261	0.308
00:00:00.262	0.323
00:00:00.263	0.308
00:00:00.265	0.300
00:00:00.266	0.300
00:00:00.268	0.300
00:00:00.269	0.292
00:00:00.270	0.308
00:00:00.272	0.308
00:00:00.273	0.277
00:00:00.275	0.277
00:00:00.276	0.285
00:00:00.277	0.277
00:00:00.279	0.277
00:00:00.280	0.277
00:00:00.281	0.262
00:00:00.283	0.269
00:00:00.284	0.262
00:00:00.286	0.254
00:00:00.287	0.262
00:00:00.288	0.269
00:00:00.290	0.254
00:00:00.291	0.262
00:00:00.293	0.246
00:00:00.294	0.231
00:00:00.295	0.238
00:00:00.297	0.231
00:00:00.298	0.223
00:00:00.300	0.231
00:00:00.301	0.238
00:00:00.302	0.223
00:00:00.304	0.223
00:00:00.305	0.231
00:00:00.306	0.223
00:00:00.308	0.208
00:00:00.309	0.208
00:00:00.311	0.200
00:00:00.312	0.200
00:00:00.313	0.192
00:00:00.315	0.185
00:00:00.316	0.192
00:00:00.318	0.192
00:00:00.319	0.192
00:00:00.320	0.200
00:00:00.322	0.192
00:00:00.323	0.192
00:00:00.325	0.185
00:00:00.326	0.185
00:00:00.327	0.177
00:00:00.329	0.185
00:00:00.330	0.200
00:00:00.331	0.192
00:00:00.333	0.208
00:00:00.334	0.223
00:00:00.336	0.208
00:00:00.337	0.223
00:00:00.338	0.231
00:00:00.340	0.223
00:00:00.341	0.223
00:00:00.343	0.231
00:00:00.344	0.223
00:00:00.345	0.223
00:00:00.347	0.238
00:00:00.348	0.238
00:00:00.350	0.231
00:00:00.351	0.246
00:00:00.352	0.262
00:00:00.354	0.246
00:00:00.355	0.254
00:00:00.356	0.246
00:00:00.358	0.246
00:00:00.359	0.254
00:00:00.361	0.269
00:00:00.362	0.277
00:00:00.363	0.292
00:00:00.365	0.308
00:00:00.366	0.323
00:00:00.368	0.338
00:00:00.369	0.354
00:00:00.370	0.392
00:00:00.372	0.392
00:00:00.373	0.400
00:00:00.375	0.431
00:00:00.376	0.462
00:00:00.377	0.469
00:00:00.379	0.492
00:00:00.380	0.515
00:00:00.381	0.531
00:00:00.383	0.554
00:00:00.384	0.585
00:00:00.386	0.577
00:00:00.387	0.577
00:00:00.388	0.569
00:00:00.390	0.554
00:00:00.391	0.554
00:00:00.393	0.569
00:00:00.394	0.554
00:00:00.395	0.531
00:00:00.397	0.531
00:00:00.398	0.508
00:00:00.400	0.462
00:00:00.401	0.438
00:00:00.402	0.438
00:00:00.404	0.415
00:00:00.405	0.392
00:00:00.406	0.385
00:00:00.408	0.377
00:00:00.409	0.369
00:00:00.411	0.369
00:00:00.412	0.362
00:00:00.413	0.354
00:00:00.415	0.354
00:00:00.416	0.346
00:00:00.418	0.331
00:00:00.419	0.354
00:00:00.420	0.354
00:00:00.422	0.331
00:00:00.423	0.331
00:00:00.425	0.338
00:00:00.426	0.331
00:00:00.427	0.315
00:00:00.429	0.315
00:00:00.430	0.315
00:00:00.431	0.323
00:00:00.433	0.331
00:00:00.434	0.308
00:00:00.436	0.300
00:00:00.437	0.300
00:00:00.438	0.292
00:00:00.440	0.285
00:00:00.441	0.277
00:00:00.443	0.277
00:00:00.444	0.262
00:00:00.445	0.254
00:00:00.447	0.238
00:00:00.448	0.246
00:00:00.450	0.238
00:00:00.451	0.238
00:00:00.452	0.246
00:00:00.454	0.238
00:00:00.455	0.231
00:00:00.456	0.238
00:00:00.458	0.238
00:00:00.459	0.231
00:00:00.461	0.223
00:00:00.462	0.223
00:00:00.463	0.223
00:00:00.465	0.215
00:00:00.466	0.215
00:00:00.468	0.215
00:00:00.469	0.223
00:00:00.470	0.215
00:00:00.472	0.215
00:00:00.473	0.223
00:00:00.475	0.223
00:00:00.476	0.223
00:00:00.477	0.223
00:00:00.479	0.223
00:00:00.480	0.223
00:00:00.481	0.215
00:00:00.483	0.231
00:00:00.484	0.215
00:00:00.486	0.215
00:00:00.487	0.215
00:00:00.488	0.223
00:00:00.490	0.215
00:00:00.491	0.215
00:00:00.493	0.208
00:00:00.494	0.215
00:00:00.495	0.223
00:00:00.497	0.208
00:00:00.498	0.208
00:00:00.500	0.208
00:00:00.501	0.192
00:00:00.502	0.200
00:00:00.504	0.200
00:00:00.505	0.192
00:00:00.506	0.200
00:00:00.508	0.208
00:00:00.509	0.208
00:00:00.511	0.208
00:00:00.512	0.223
00:00:00.513	0.223
00:00:00.515	0.208
00:00:00.516	0.223
00:00:00.518	0.223
00:00:00.519	0.223
00:00:00.520	0.223
00:00:00.522	0.223
00:00:00.523	0.223
00:00:00.525	0.223
00:00:00.526	0.215
00:00:00.527	0.215
00:00:00.529	0.215
00:00:00.530	0.215
00:00:00.531	0.215
00:00:00.533	0.215
00:00:00.534	0.215
00:00:00.536	0.208
00:00:00.537	0.208
00:00:00.538	0.208
00:00:00.540	0.208
00:00:00.541	0.208
00:00:00.543	0.208
00:00:00.544	0.208
00:00:00.545	0.215
00:00:00.547	0.208
00:00:00.548	0.208
00:00:00.550	0.215
00:00:00.551	0.215
00:00:00.552	0.200
00:00:00.554	0.208
00:00:00.555	0.215
00:00:00.556	0.208
00:00:00.558	0.185
00:00:00.559	0.192
00:00:00.561	0.177
00:00:00.562	0.162
00:00:00.563	0.177
00:00:00.565	0.177
00:00:00.566	0.177
00:00:00.568	0.169
00:00:00.569	0.169
00:00:00.570	0.177
00:00:00.572	0.169
00:00:00.573	0.169
00:00:00.575	0.169
00:00:00.576	0.162
00:00:00.577	0.162
00:00:00.579	0.146
00:00:00.580	0.162
00:00:00.581	0.162
00:00:00.583	0.154
00:00:00.584	0.154
00:00:00.586	0.169
00:00:00.587	0.162
00:00:00.588	0.146
00:00:00.590	0.169
00:00:00.591	0.177
00:00:00.593	0.162
00:00:00.594	0.154
00:00:00.595	0.162
00:00:00.597	0.162
00:00:00.598	0.169
00:00:00.600	0.162
00:00:00.601	0.154
00:00:00.602	0.162
00:00:00.604	0.177
00:00:00.605	0.169
00:00:00.606	0.162
00:00:00.608	0.162
00:00:00.609	0.162
00:00:00.611	0.154
00:00:00.612	0.154
00:00:00.613	0.169
00:00:00.615	0.169
00:00:00.616	0.154
00:00:00.618	0.154
00:00:00.619	0.162
00:00:00.620	0.154
00:00:00.622	0.138
00:00:00.623	0.146
00:00:00.625	0.146
00:00:00.626	0.138
00:00:00.627	0.138
00:00:00.629	0.138
00:00:00.630	0.131
00:00:00.631	0.123
00:00:00.633	0.123
00:00:00.634	0.115
00:00:00.636	0.115
00:00:00.637	0.131
00:00:00.638	0.123
00:00:00.640	0.123
00:00:00.641	0.131
00:00:00.643	0.123
00:00:00.644	0.100
00:00:00.645	0.100
00:00:00.647	0.092
00:00:00.648	0.092
00:00:00.650	0.100
00:00:00.651	0.092
00:00:00.652	0.092
00:00:00.654	0.085
00:00:00.655	0.085
00:00:00.656	0.085
00:00:00.658	0.092
00:00:00.659	0.100
00:00:00.661	0.100
00:00:00.662	0.100
00:00:00.663	0.100
00:00:00.665	0.108
00:00:00.666	0.092
00:00:00.668	0.115
00:00:00.669	0.131
00:00:00.670	0.123
00:00:00.672	0.123
00:00:00.673	0.115
00:00:00.675	0.123
00:00:00.676	0.115
00:00:00.677	0.123
00:00:00.679	0.123
00:00:00.680	0.123
00:00:00.681	0.123
00:00:00.683	0.138
00:00:00.684	0.123
00:00:00.686	0.138
00:00:00.687	0.146
00:00:00.688	0.146
00:00:00.690	0.138
00:00:00.691	0.146
00:00:00.693	0.154
00:00:00.694	0.146
00:00:00.695	0.154
00:00:00.697	0.154
00:00:00.698	0.154
00:00:00.700	0.162
00:00:00.701	0.162
00:00:00.702	0.162
00:00:00.704	0.177
00:00:00.705	0.177
00:00:00.706	0.185
00:00:00.708	0.185
00:00:00.709	0.192
00:00:00.711	0.185
00:00:00.712	0.185
00:00:00.713	0.177
00:00:00.715	0.185
00:00:00.716	0.185
00:00:00.718	0.200
00:00:00.719	0.200
00:00:00.720	0.208
00:00:00.722	0.208
00:00:00.723	0.208
00:00:00.725	0.215
00:00:00.726	0.223
00:00:00.727	0.215
00:00:00.729	0.223
00:00:00.730	0.223
00:00:00.731	0.215
00:00:00.733	0.215
00:00:00.734	0.223
00:00:00.736	0.223
00:00:00.737	0.223
00:00:00.738	0.231
00:00:00.740	0.238
00:00:00.741	0.231
00:00:00.743	0.223
00:00:00.744	0.238
00:00:00.745	0.238
00:00:00.747	0.246
00:00:00.748	0.246
00:00:00.750	0.238
00:00:00.751	0.238
00:00:00.752	0.231
00:00:00.754	0.238
00:00:00.755	0.238
00:00:00.756	0.231
00:00:00.758	0.238
00:00:00.759	0.231
00:00:00.761	0.231
00:00:00.762	0.238
00:00:00.763	0.223
00:00:00.765	0.231
00:00:00.766	0.231
00:00:00.768	0.223
00:00:00.769	0.223
00:00:00.770	0.231
00:00:00.772	0.223
00:00:00.773	0.223
00:00:00.775	0.231
00:00:00.776	0.231
00:00:00.777	0.215
00:00:00.779	0.215
00:00:00.780	0.223
00:00:00.781	0.231
00:00:00.783	0.223
00:00:00.784	0.231
00:00:00.786	0.231
00:00:00.787	0.223
00:00:00.788	0.223
00:00:00.790	0.223
00:00:00.791	0.223
00:00:00.793	0.208
00:00:00.794	0.208
00:00:00.795	0.208
00:00:00.797	0.215
00:00:00.798	0.215
00:00:00.800	0.208
00:00:00.801	0.208
00:00:00.802	0.223
00:00:00.804	0.215
00:00:00.805	0.208
00:00:00.806	0.208
00:00:00.808	0.223
00:00:00.809	0.231
00:00:00.811	0.238
00:00:00.812	0.238
00:00:00.813	0.238
00:00:00.815	0.246
00:00:00.816	0.231
00:00:00.818	0.223
00:00:00.819	0.215
00:00:00.820	0.223
00:00:00.822	0.208
00:00:00.823	0.208
00:00:00.825	0.215
00:00:00.826	0.215
00:00:00.827	0.215
00:00:00.829	0.223
00:00:00.830	0.223
00:00:00.831	0.215
00:00:00.833	0.223
00:00:00.834	0.223
00:00:00.836	0.208
00:00:00.837	0.223
00:00:00.838	0.238
00:00:00.840	0.231
00:00:00.841	0.223
00:00:00.843	0.215
00:00:00.844	0.223
00:00:00.845	0.223
00:00:00.847	0.215
00:00:00.848	0.215
00:00:00.850	0.215
00:00:00.851	0.215
00:00:00.852	0.208
00:00:00.854	0.208
00:00:00.855	0.215
00:00:00.856	0.200
00:00:00.858	0.200
00:00:00.859	0.200
00:00:00.861	0.192
00:00:00.862	0.200
00:00:00.863	0.200
00:00:00.865	0.192
00:00:00.866	0.192
00:00:00.868	0.200
00:00:00.869	0.200
00:00:00.870	0.200
00:00:00.872	0.208
00:00:00.873	0.208
00:00:00.875	0.200
00:00:00.876	0.200
00:00:00.877	0.200
00:00:00.879	0.192
00:00:00.880	0.200
00:00:00.881	0.200
00:00:00.883	0.208
00:00:00.884	0.215
00:00:00.886	0.231
00:00:00.887	0.238
00:00:00.888	0.269
00:00:00.890	0.285
00:00:00.891	0.285
00:00:00.893	0.308
00:00:00.894	0.323
00:00:00.895	0.338
00:00:00.897	0.331
00:00:00.898	0.338
00:00:00.900	0.338
00:00:00.901	0.346
00:00:00.902	0.354
00:00:00.904	0.346
00:00:00.905	0.331
00:00:00.906	0.315
00:00:00.908	0.292
00:00:00.909	0.269
00:00:00.911	0.238
00:00:00.912	0.223
00:00:00.913	0.208
00:00:00.915	0.185
00:00:00.916	0.146
00:00:00.918	0.092
00:00:00.919	0.054
00:00:00.920	0.008
00:00:00.922	-0.023
00:00:00.923	-0.062
00:00:00.925	-0.115
00:00:00.926	-0.177
00:00:00.927	-0.231
00:00:00.929	-0.300
00:00:00.930	-0.362
00:00:00.931	-0.423
00:00:00.933	-0.477
00:00:00.934	-0.515
00:00:00.936	-0.515
00:00:00.937	-0.492
00:00:00.938	-0.469
00:00:00.940	-0.477
00:00:00.941	-0.462
00:00:00.943	-0.438
00:00:00.944	-0.431
00:00:00.945	-0.415
00:00:00.947	-0.369
00:00:00.948	-0.346
00:00:00.950	-0.331
00:00:00.951	-0.308
00:00:00.952	-0.269
00:00:00.954	-0.238
00:00:00.955	-0.200
00:00:00.956	-0.154
00:00:00.958	-0.108
00:00:00.959	-0.069
00:00:00.961	-0.031
00:00:00.962	0.023
00:00:00.963	0.069
00:00:00.965	0.092
00:00:00.966	0.108
00:00:00.968	0.108
00:00:00.969	0.115
00:00:00.970	0.138
00:00:00.972	0.154
00:00:00.973	0.162
00:00:00.975	0.162
00:00:00.976	0.169
00:00:00.977	0.177
00:00:00.979	0.177
00:00:00.980	0.192
00:00:00.981	0.200
00:00:00.983	0.208
00:00:00.984	0.208
00:00:00.986	0.215
00:00:00.987	0.223
00:00:00.988	0.215
00:00:00.990	0.215
00:00:00.991	0.215
00:00:00.993	0.215
00:00:00.994	0.215
00:00:00.995	0.223
00:00:00.997	0.223
00:00:00.998	0.223
00:00:01.000	0.231
00:00:01.001	0.231
00:00:01.002	0.238
00:00:01.004	0.238
00:00:01.005	0.246
00:00:01.006	0.246
00:00:01.008	0.238
00:00:01.009	0.231
00:00:01.011	0.246
00:00:01.012	0.238
00:00:01.013	0.238
00:00:01.015	0.238
00:00:01.016	0.238
00:00:01.018	0.238
00:00:01.019	0.262
00:00:01.020	0.269
00:00:01.022	0.262
00:00:01.023	0.269
00:00:01.025	0.269
00:00:01.026	0.277
00:00:01.027	0.269
00:00:01.029	0.277
00:00:01.030	0.277
00:00:01.031	0.285
00:00:01.033	0.277
00:00:01.034	0.269
00:00:01.036	0.277
00:00:01.037	0.285
00:00:01.038	0.277
00:00:01.040	0.277
00:00:01.041	0.285
00:00:01.043	0.277
00:00:01.044	0.269
00:00:01.045	0.277
00:00:01.047	0.285
00:00:01.048	0.285
00:00:01.050	0.300
00:00:01.051	0.300
00:00:01.052	0.308
00:00:01.054	0.308
00:00:01.055	0.308
00:00:01.056	0.308
00:00:01.058	0.308
00:00:01.059	0.300
00:00:01.061	0.300
00:00:01.062	0.300
00:00:01.063	0.300
00:00:01.065	0.292
00:00:01.066	0.300
00:00:01.068	0.300
00:00:01.069	0.300
00:00:01.070	0.300
00:00:01.072	0.300
00:00:01.073	0.300
00:00:01.075	0.292
00:00:01.076	0.277
00:00:01.077	0.300
00:00:01.079	0.300
00:00:01.080	0.292
00:00:01.081	0.300
00:00:01.083	0.292
00:00:01.084	0.300
00:00:01.086	0.300
00:00:01.087	0.292
00:00:01.088	0.308
00:00:01.090	0.331
00:00:01.091	0.331
00:00:01.093	0.323
00:00:01.094	0.331
00:00:01.095	0.323
00:00:01.097	0.308
00:00:01.098	0.323
00:00:01.100	0.323
00:00:01.101	0.308
00:00:01.102	0.300
00:00:01.104	0.300
00:00:01.105	0.308
00:00:01.106	0.315
00:00:01.108	0.315
00:00:01.109	0.315
00:00:01.111	0.323
00:00:01.112	0.331
00:00:01.113	0.338
00:00:01.115	0.338
00:00:01.116	0.346
00:00:01.118	0.354
00:00:01.119	0.369
00:00:01.120	0.377
00:00:01.122	0.385
00:00:01.123	0.369
00:00:01.125	0.377
00:00:01.126	0.385
00:00:01.127	0.392
00:00:01.129	0.385
00:00:01.130	0.385
00:00:01.131	0.377
00:00:01.133	0.392
00:00:01.134	0.400
00:00:01.136	0.392
00:00:01.137	0.392
00:00:01.138	0.392
00:00:01.140	0.400
00:00:01.141	0.400
00:00:01.143	0.400
00:00:01.144	0.415
00:00:01.145	0.423
00:00:01.147	0.423
00:00:01.148	0.423
00:00:01.150	0.423
00:00:01.151	0.431
00:00:01.152	0.431
00:00:01.154	0.446
00:00:01.155	0.454
00:00:01.156	0.446
00:00:01.158	0.446
00:00:01.159	0.454
00:00:01.161	0.446
00:00:01.162	0.446
00:00:01.163	0.446
00:00:01.165	0.454
00:00:01.166	0.454
00:00:01.168	0.454
00:00:01.169	0.462
00:00:01.170	0.462
00:00:01.172	0.462
00:00:01.173	0.477
00:00:01.175	0.469
00:00:01.176	0.469
00:00:01.177	0.469
00:00:01.179	0.462
00:00:01.180	0.462
00:00:01.181	0.469
00:00:01.183	0.462
00:00:01.184	0.462
00:00:01.186	0.462
00:00:01.187	0.469
00:00:01.188	0.446
00:00:01.190	0.454
00:00:01.191	0.469
00:00:01.193	0.462
00:00:01.194	0.454
00:00:01.195	0.446
00:00:01.197	0.438
00:00:01.198	0.431
00:00:01.200	0.423
00:00:01.201	0.415
00:00:01.202	0.408
00:00:01.204	0.415
00:00:01.205	0.408
00:00:01.206	0.408
00:00:01.208	0.400
00:00:01.209	0.400
00:00:01.211	0.400
00:00:01.212	0.400
00:00:01.213	0.385
00:00:01.215	0.377
00:00:01.216	0.385
00:00:01.218	0.369
00:00:01.219	0.354
00:00:01.220	0.369
00:00:01.222	0.362
00:00:01.223	0.362
00:00:01.225	0.354
00:00:01.226	0.338
00:00:01.227	0.331
00:00:01.229	0.331
00:00:01.230	0.323
00:00:01.231	0.315
00:00:01.233	0.315
00:00:01.234	0.308
00:00:01.236	0.300
00:00:01.237	0.300
00:00:01.238	0.292
00:00:01.240	0.285
00:00:01.241	0.277
00:00:01.243	0.269
00:00:01.244	0.269
00:00:01.245	0.262
00:00:01.247	0.269
00:00:01.248	0.254
00:00:01.250	0.238
00:00:01.251	0.238
00:00:01.252	0.246
00:00:01.254	0.231
00:00:01.255	0.231
00:00:01.256	0.231
00:00:01.258	0.238
00:00:01.259	0.231
00:00:01.261	0.215
00:00:01.262	0.215
00:00:01.263	0.223
00:00:01.265	0.215
00:00:01.266	0.208
00:00:01.268	0.215
00:00:01.269	0.223
00:00:01.270	0.215
00:00:01.272	0.215
00:00:01.273	0.223
00:00:01.275	0.223
00:00:01.276	0.238
00:00:01.277	0.238
00:00:01.279	0.238
00:00:01.280	0.223
00:00:01.281	0.223
00:00:01.283	0.223
00:00:01.284	0.231
00:00:01.286	0.215
00:00:01.287	0.208
00:00:01.288	0.208
00:00:01.290	0.208
00:00:01.291	0.208
00:00:01.293	0.208
00:00:01.294	0.200
00:00:01.295	0.192
00:00:01.297	0.200
00:00:01.298	0.200
00:00:01.300	0.208
00:00:01.301	0.208
00:00:01.302	0.215
00:00:01.304	0.215
00:00:01.305	0.215
00:00:01.306	0.223
00:00:01.308	0.223
00:00:01.309	0.223
00:00:01.311	0.215
00:00:01.312	0.223
00:00:01.313	0.231
00:00:01.315	0.238
00:00:01.316	0.231
00:00:01.318	0.223
00:00:01.319	0.223
00:00:01.320	0.223
00:00:01.322	0.246
00:00:01.323	0.238
00:00:01.325	0.238
00:00:01.326	0.238
00:00:01.327	0.231
00:00:01.329	0.223
00:00:01.330	0.231
00:00:01.331	0.223
00:00:01.333	0.223
00:00:01.334	0.231
00:00:01.336	0.238
00:00:01.337	0.215
00:00:01.338	0.215
00:00:01.340	0.208
00:00:01.341	0.215
00:00:01.343	0.208
00:00:01.344	0.200
00:00:01.345	0.192
00:00:01.347	0.192
00:00:01.348	0.200
00:00:01.350	0.200
00:00:01.351	0.200
00:00:01.352	0.200
00:00:01.354	0.208
00:00:01.355	0.208
00:00:01.356	0.215
00:00:01.358	0.208
00:00:01.359	0.208
00:00:01.361	0.215
00:00:01.362	0.223
00:00:01.363	0.231
00:00:01.365	0.215
00:00:01.366	0.215
00:00:01.368	0.231
00:00:01.369	0.223
00:00:01.370	0.200
00:00:01.372	0.208
00:00:01.373	0.215
00:00:01.375	0.200
00:00:01.376	0.200
00:00:01.377	0.200
00:00:01.379	0.192
00:00:01.380	0.177
00:00:01.381	0.177
00:00:01.383	0.185
00:00:01.384	0.177
00:00:01.386	0.177
00:00:01.387	0.177
00:00:01.388	0.177
00:00:01.390	0.185
00:00:01.391	0.192
00:00:01.393	0.185
00:00:01.394	0.185
00:00:01.395	0.185
00:00:01.397	0.185
00:00:01.398	0.177
00:00:01.400	0.185
00:00:01.401	0.192
00:00:01.402	0.192
00:00:01.404	0.185
00:00:01.405	0.185
00:00:01.406	0.185
00:00:01.408	0.185
00:00:01.409	0.185
00:00:01.411	0.185
00:00:01.412	0.185
00:00:01.413	0.185
00:00:01.415	0.185
00:00:01.416	0.192
00:00:01.418	0.200
00:00:01.419	0.200
00:00:01.420	0.200
00:00:01.422	0.208
00:00:01.423	0.200
00:00:01.425	0.192
00:00:01.426	0.185
00:00:01.427	0.192
00:00:01.429	0.192
00:00:01.430	0.177
00:00:01.431	0.192
00:00:01.433	0.192
00:00:01.434	0.185
00:00:01.436	0.185
00:00:01.437	0.192
00:00:01.438	0.192
00:00:01.440	0.177
00:00:01.441	0.169
00:00:01.443	0.169
00:00:01.444	0.185
00:00:01.445	0.185
00:00:01.447	0.177
00:00:01.448	0.177
00:00:01.450	0.185
00:00:01.451	0.185
00:00:01.452	0.177
00:00:01.454	0.185
00:00:01.455	0.185
00:00:01.456	0.185
00:00:01.458	0.185
00:00:01.459	0.192
00:00:01.461	0.185
00:00:01.462	0.185
00:00:01.463	0.192
00:00:01.465	0.185
00:00:01.466	0.185
00:00:01.468	0.185
00:00:01.469	0.185
00:00:01.470	0.185
00:00:01.472	0.177
00:00:01.473	0.185
00:00:01.475	0.185
00:00:01.476	0.185
00:00:01.477	0.177
00:00:01.479	0.185
00:00:01.480	0.192
00:00:01.481	0.185
00:00:01.483	0.185
00:00:01.484	0.192
00:00:01.486	0.185
00:00:01.487	0.177
00:00:01.488	0.177
00:00:01.490	0.177
00:00:01.491	0.169
00:00:01.493	0.162
00:00:01.494	0.177
00:00:01.495	0.177
00:00:01.497	0.169
00:00:01.498	0.162
00:00:01.500	0.177
00:00:01.501	0.177
00:00:01.502	0.185
00:00:01.504	0.185
00:00:01.505	0.185
00:00:01.506	0.185
00:00:01.508	0.192
00:00:01.509	0.200
00:00:01.511	0.208
00:00:01.512	0.208
00:00:01.513	0.208
00:00:01.515	0.200
00:00:01.516	0.208
00:00:01.518	0.208
00:00:01.519	0.200
00:00:01.520	0.200
00:00:01.522	0.192
00:00:01.523	0.208
00:00:01.525	0.192
00:00:01.526	0.192
00:00:01.527	0.192
00:00:01.529	0.192
00:00:01.530	0.192
00:00:01.531	0.185
00:00:01.533	0.177
00:00:01.534	0.200
00:00:01.536	0.192
00:00:01.537	0.185
00:00:01.538	0.208
00:00:01.540	0.215
00:00:01.541	0.208
00:00:01.543	0.208
00:00:01.544	0.208
00:00:01.545	0.208
00:00:01.547	0.200
00:00:01.548	0.208
00:00:01.550	0.223
00:00:01.551	0.200
00:00:01.552	0.208
00:00:01.554	0.200
00:00:01.555	0.215
00:00:01.556	0.215
00:00:01.558	0.215
00:00:01.559	0.223
00:00:01.561	0.215
00:00:01.562	0.215
00:00:01.563	0.223
00:00:01.565	0.215
00:00:01.566	0.215
00:00:01.568	0.208
00:00:01.569	0.215
00:00:01.570	0.215
00:00:01.572	0.208
00:00:01.573	0.215
00:00:01.575	0.215
00:00:01.576	0.215
00:00:01.577	0.223
00:00:01.579	0.215
00:00:01.580	0.215
00:00:01.581	0.215
00:00:01.583	0.208
00:00:01.584	0.208
00:00:01.586	0.208
00:00:01.587	0.215
00:00:01.588	0.215
00:00:01.590	0.208
00:00:01.591	0.208
00:00:01.593	0.208
00:00:01.594	0.215
00:00:01.595	0.208
00:00:01.597	0.200
00:00:01.598	0.208
00:00:01.600	0.215
00:00:01.601	0.200
00:00:01.602	0.200
00:00:01.604	0.215
00:00:01.605	0.208
00:00:01.606	0.208
00:00:01.608	0.208
00:00:01.609	0.208
00:00:01.611	0.208
00:00:01.612	0.215
00:00:01.613	0.208
00:00:01.615	0.192
00:00:01.616	0.200
00:00:01.618	0.208
00:00:01.619	0.200
00:00:01.620	0.200
00:00:01.622	0.200
00:00:01.623	0.200
00:00:01.625	0.200
00:00:01.626	0.208
00:00:01.627	0.208
00:00:01.629	0.215
00:00:01.630	0.223
00:00:01.631	0.223
00:00:01.633	0.215
00:00:01.634	0.223
00:00:01.636	0.223
00:00:01.637	0.215
00:00:01.638	0.215
00:00:01.640	0.208
00:00:01.641	0.200
00:00:01.643	0.200
00:00:01.644	0.208
00:00:01.645	0.208
00:00:01.647	0.208
00:00:01.648	0.223
00:00:01.650	0.223
00:00:01.651	0.215
00:00:01.652	0.238
00:00:01.654	0.238
00:00:01.655	0.231
00:00:01.656	0.238
00:00:01.658	0.246
00:00:01.659	0.223
00:00:01.661	0.238
00:00:01.662	0.246
00:00:01.663	0.223
00:00:01.665	0.223
00:00:01.666	0.231
00:00:01.668	0.223
00:00:01.669	0.215
00:00:01.670	0.231
00:00:01.672	0.231
00:00:01.673	0.223
00:00:01.675	0.231
00:00:01.676	0.238
00:00:01.677	0.238
00:00:01.679	0.238
00:00:01.680	0.262
00:00:01.681	0.262
00:00:01.683	0.269
00:00:01.684	0.269
00:00:01.686	0.277
00:00:01.687	0.269
00:00:01.688	0.269
00:00:01.690	0.277
00:00:01.691	0.277
00:00:01.693	0.285
00:00:01.694	0.262
00:00:01.695	0.262
00:00:01.697	0.277
00:00:01.698	0.269
00:00:01.700	0.262
00:00:01.701	0.254
00:00:01.702	0.254
00:00:01.704	0.254
00:00:01.705	0.254
00:00:01.706	0.269
00:00:01.708	0.262
00:00:01.709	0.269
00:00:01.711	0.277
00:00:01.712	0.262
00:00:01.713	0.277
00:00:01.715	0.277
00:00:01.716	0.277
00:00:01.718	0.285
00:00:01.719	0.300
00:00:01.720	0.308
00:00:01.722	0.300
00:00:01.723	0.292
00:00:01.725	0.300
00:00:01.726	0.308
00:00:01.727	0.308
00:00:01.729	0.308
00:00:01.730	0.292
00:00:01.731	0.308
00:00:01.733	0.300
00:00:01.734	0.300
00:00:01.736	0.300
00:00:01.737	0.292
00:00:01.738	0.285
00:00:01.740	0.277
00:00:01.741	0.277
00:00:01.743	0.285
00:00:01.744	0.292
00:00:01.745	0.292
00:00:01.747	0.285
00:00:01.748	0.292
00:00:01.750	0.300
00:00:01.751	0.300
00:00:01.752	0.300
00:00:01.754	0.308
00:00:01.755	0.300
00:00:01.756	0.292
00:00:01.758	0.300
00:00:01.759	0.300
00:00:01.761	0.292
00:00:01.762	0.292
00:00:01.763	0.292
00:00:01.765	0.277
00:00:01.766	0.292
00:00:01.768	0.292
00:00:01.769	0.292
00:00:01.770	0.269
00:00:01.772	0.285
00:00:01.773	0.277
00:00:01.775	0.269
00:00:01.776	0.269
00:00:01.777	0.262
00:00:01.779	0.254
00:00:01.780	0.246
00:00:01.781	0.262
00:00:01.783	0.262
00:00:01.784	0.246
00:00:01.786	0.246
00:00:01.787	0.238
00:00:01.788	0.238
00:00:01.790	0.238
00:00:01.791	0.231
00:00:01.793	0.231
00:00:01.794	0.238
00:00:01.795	0.231
00:00:01.797	0.223
00:00:01.798	0.238
00:00:01.800	0.238
00:00:01.801	0.231
00:00:01.802	0.223
00:00:01.804	0.231
00:00:01.805	0.223
00:00:01.806	0.215
00:00:01.808	0.215
00:00:01.809	0.208
00:00:01.811	0.200
00:00:01.812	0.200
00:00:01.813	0.208
00:00:01.815	0.208
00:00:01.816	0.208
00:00:01.818	0.215
00:00:01.819	0.208
00:00:01.820	0.208
00:00:01.822	0.208
00:00:01.823	0.208
00:00:01.825	0.215
00:00:01.826	0.223
00:00:01.827	0.231
00:00:01.829	0.231
00:00:01.830	0.238
00:00:01.831	0.238
00:00:01.833	0.238
00:00:01.834	0.246
00:00:01.836	0.246
00:00:01.837	0.231
00:00:01.838	0.246
00:00:01.840	0.246
00:00:01.841	0.231
00:00:01.843	0.238
00:00:01.844	0.254
00:00:01.845	0.238
00:00:01.847	0.246
00:00:01.848	0.246
00:00:01.850	0.246
00:00:01.851	0.246
00:00:01.852	0.254
00:00:01.854	0.262
00:00:01.855	0.262
00:00:01.856	0.262
00:00:01.858	0.269
00:00:01.859	0.285
00:00:01.861	0.300
00:00:01.862	0.315
00:00:01.863	0.331
00:00:01.865	0.346
00:00:01.866	0.362
00:00:01.868	0.377
00:00:01.869	0.392
00:00:01.870	0.415
00:00:01.872	0.431
00:00:01.873	0.446
00:00:01.875	0.477
00:00:01.876	0.500
00:00:01.877	0.508
00:00:01.879	0.531
00:00:01.880	0.562
00:00:01.881	0.569
00:00:01.883	0.562
00:00:01.884	0.562
00:00:01.886	0.562
00:00:01.887	0.562
00:00:01.888	0.554
00:00:01.890	0.554
00:00:01.891	0.538
00:00:01.893	0.523
00:00:01.894	0.500
00:00:01.895	0.477
00:00:01.897	0.469
00:00:01.898	0.431
00:00:01.900	0.400
00:00:01.901	0.385
00:00:01.902	0.385
00:00:01.904	0.377
00:00:01.905	0.377
00:00:01.906	0.369
00:00:01.908	0.354
00:00:01.909	0.346
00:00:01.911	0.346
00:00:01.912	0.346
00:00:01.913	0.346
00:00:01.915	0.338
00:00:01.916	0.346
00:00:01.918	0.338
00:00:01.919	0.331
00:00:01.920	0.338
00:00:01.922	0.338
00:00:01.923	0.331
00:00:01.925	0.323
00:00:01.926	0.331
00:00:01.927	0.331
00:00:01.929	0.323
00:00:01.930	0.331
00:00:01.931	0.323
00:00:01.933	0.292
00:00:01.934	0.292
00:00:01.936	0.292
00:00:01.937	0.285
00:00:01.938	0.269
00:00:01.940	0.262
00:00:01.941	0.246
00:00:01.943	0.254
00:00:01.944	0.246
00:00:01.945	0.238
00:00:01.947	0.246
00:00:01.948	0.254
00:00:01.950	0.238
00:00:01.951	0.231
00:00:01.952	0.246
00:00:01.954	0.238
00:00:01.955	0.238
00:00:01.956	0.238
00:00:01.958	0.238
00:00:01.959	0.231
00:00:01.961	0.231
00:00:01.962	0.215
00:00:01.963	0.223
00:00:01.965	0.215
00:00:01.966	0.215
00:00:01.968	0.215
00:00:01.969	0.223
00:00:01.970	0.215
00:00:01.972	0.208
00:00:01.973	0.223
00:00:01.975	0.223
00:00:01.976	0.223
00:00:01.977	0.223
00:00:01.979	0.223
00:00:01.980	0.215
00:00:01.981	0.215
00:00:01.983	0.223
00:00:01.984	0.223
00:00:01.986	0.215
00:00:01.987	0.215
00:00:01.988	0.223
00:00:01.990	0.215
00:00:01.991	0.223
00:00:01.993	0.223
00:00:01.994	0.215
00:00:01.995	0.208
00:00:01.997	0.208
00:00:01.998	0.208
00:00:02.000	0.192
00:00:02.001	0.200
00:00:02.002	0.208
00:00:02.004	0.192
00:00:02.005	0.192
00:00:02.006	0.200
00:00:02.008	0.223
00:00:02.009	0.215
00:00:02.011	0.215
00:00:02.012	0.223
00:00:02.013	0.215
00:00:02.015	0.215
00:00:02.016	0.215
00:00:02.018	0.215
00:00:02.019	0.215
00:00:02.020	0.215
00:00:02.022	0.231
00:00:02.023	0.231
00:00:02.025	0.223
00:00:02.026	0.215
00:00:02.027	0.223
00:00:02.029	0.215
00:00:02.030	0.200
00:00:02.031	0.192
00:00:02.033	0.200
00:00:02.034	0.200
00:00:02.036	0.200
00:00:02.037	0.192
00:00:02.038	0.200
00:00:02.040	0.200
00:00:02.041	0.200
00:00:02.043	0.185
00:00:02.044	0.200
00:00:02.045	0.200
00:00:02.047	0.200
00:00:02.048	0.192
00:00:02.050	0.192
00:00:02.051	0.208
00:00:02.052	0.200
00:00:02.054	0.185
00:00:02.055	0.185
00:00:02.056	0.185
00:00:02.058	0.185
00:00:02.059	0.169
00:00:02.061	0.162
00:00:02.062	0.162
00:00:02.063	0.169
00:00:02.065	0.177
00:00:02.066	0.162
00:00:02.068	0.169
00:00:02.069	0.169
00:00:02.070	0.162
00:00:02.072	0.154
00:00:02.073	0.154
00:00:02.075	0.162
00:00:02.076	0.169
00:00:02.077	0.169
00:00:02.079	0.169
00:00:02.080	0.177
00:00:02.081	0.169
00:00:02.083	0.162
00:00:02.084	0.169
00:00:02.086	0.177
00:00:02.087	0.162
00:00:02.088	0.169
00:00:02.090	0.169
00:00:02.091	0.162
00:00:02.093	0.162
00:00:02.094	0.162
00:00:02.095	0.162
00:00:02.097	0.154
00:00:02.098	0.162
00:00:02.100	0.154
00:00:02.101	0.154
00:00:02.102	0.162
00:00:02.104	0.154
00:00:02.105	0.154
00:00:02.106	0.162
00:00:02.108	0.162
00:00:02.109	0.154
00:00:02.111	0.162
00:00:02.112	0.162
00:00:02.113	0.146
00:00:02.115	0.146
00:00:02.116	0.154
00:00:02.118	0.146
00:00:02.119	0.131
00:00:02.120	0.138
00:00:02.122	0.131
00:00:02.123	0.123
00:00:02.125	0.115
00:00:02.126	0.131
00:00:02.127	0.123
00:00:02.129	0.123
00:00:02.130	0.115
00:00:02.131	0.108
00:00:02.133	0.100
00:00:02.134	0.100
00:00:02.136	0.092
00:00:02.137	0.100
00:00:02.138	0.092
00:00:02.140	0.100
00:00:02.141	0.092
00:00:02.143	0.092
00:00:02.144	0.077
00:00:02.145	0.069
00:00:02.147	0.069
00:00:02.148	0.069
00:00:02.150	0.069
00:00:02.151	0.069
00:00:02.152	0.085
00:00:02.154	0.077
00:00:02.155	0.077
00:00:02.156	0.069
00:00:02.158	0.085
00:00:02.159	0.092
00:00:02.161	0.092
00:00:02.162	0.092
00:00:02.163	0.100
00:00:02.165	0.092
00:00:02.166	0.108
00:00:02.168	0.115
00:00:02.169	0.123
00:00:02.170	0.131
00:00:02.172	0.138
00:00:02.173	0.131
00:00:02.175	0.123
00:00:02.176	0.131
00:00:02.177	0.131
00:00:02.179	0.123
00:00:02.180	0.123
00:00:02.181	0.123
00:00:02.183	0.131
00:00:02.184	0.154
00:00:02.186	0.146
00:00:02.187	0.154
00:00:02.188	0.162
00:00:02.190	0.162
00:00:02.191	0.154
00:00:02.193	0.162
00:00:02.194	0.162
00:00:02.195	0.162
00:00:02.197	0.154
00:00:02.198	0.169
00:00:02.200	0.169
00:00:02.201	0.177
00:00:02.202	0.185
00:00:02.204	0.177
00:00:02.205	0.177
00:00:02.206	0.185
00:00:02.208	0.192
00:00:02.209	0.192
00:00:02.211	0.200
00:00:02.212	0.200
00:00:02.213	0.192
00:00:02.215	0.200
00:00:02.216	0.208
00:00:02.218	0.215
00:00:02.219	0.215
00:00:02.220	0.215
00:00:02.222	0.215
00:00:02.223	0.223
00:00:02.225	0.208
00:00:02.226	0.215
00:00:02.227	0.215
00:00:02.229	0.200
00:00:02.230	0.200
00:00:02.231	0.215
00:00:02.233	0.215
00:00:02.234	0.208
00:00:02.236	0.208
00:00:02.237	0.215
00:00:02.238	0.215
00:00:02.240	0.215
00:00:02.241	0.223
00:00:02.243	0.231
00:00:02.244	0.223
00:00:02.245	0.215
00:00:02.247	0.215
00:00:02.248	0.215
00:00:02.250	0.215
00:00:02.251	0.215
00:00:02.252	0.215
00:00:02.254	0.208
00:00:02.255	0.215
00:00:02.256	0.208
00:00:02.258	0.185
00:00:02.259	0.192
00:00:02.261	0.200
00:00:02.262	0.208
00:00:02.263	0.208
00:00:02.265	0.208
00:00:02.266	0.208
00:00:02.268	0.215
00:00:02.269	0.215
00:00:02.270	0.208
00:00:02.272	0.208
00:00:02.273	0.215
00:00:02.275	0.208
00:00:02.276	0.215
00:00:02.277	0.231
00:00:02.279	0.223
00:00:02.280	0.223
00:00:02.281	0.231
00:00:02.283	0.223
00:00:02.284	0.215
00:00:02.286	0.223
00:00:02.287	0.208
00:00:02.288	0.208
00:00:02.290	0.208
00:00:02.291	0.208
00:00:02.293	0.200
00:00:02.294	0.208
00:00:02.295	0.215
00:00:02.297	0.200
00:00:02.298	0.208
00:00:02.300	0.200
00:00:02.301	0.200
00:00:02.302	0.208
00:00:02.304	0.215
00:00:02.305	0.215
00:00:02.306	0.215
00:00:02.308	0.215
00:00:02.309	0.223
00:00:02.311	0.223
00:00:02.312	0.223
00:00:02.313	0.215
00:00:02.315	0.215
00:00:02.316	0.215
00:00:02.318	0.208
00:00:02.319	0.200
00:00:02.320	0.200
00:00:02.322	0.200
00:00:02.323	0.208
00:00:02.325	0.215
00:00:02.326	0.223
00:00:02.327	0.223
00:00:02.329	0.223
00:00:02.330	0.215
00:00:02.331	0.215
00:00:02.333	0.231
00:00:02.334	0.231
00:00:02.336	0.223
00:00:02.337	0.231
00:00:02.338	0.238
00:00:02.340	0.223
00:00:02.341	0.223
00:00:02.343	0.223
00:00:02.344	0.223
00:00:02.345	0.215
00:00:02.347	0.215
00:00:02.348	0.215
00:00:02.350	0.215
00:00:02.351	0.200
00:00:02.352	0.200
00:00:02.354	0.208
00:00:02.355	0.208
00:00:02.356	0.208
00:00:02.358	0.208
00:00:02.359	0.192
00:00:02.361	0.200
00:00:02.362	0.208
00:00:02.363	0.200
00:00:02.365	0.200
00:00:02.366	0.208
00:00:02.368	0.208
00:00:02.369	0.200
00:00:02.370	0.208
00:00:02.372	0.208
00:00:02.373	0.208
00:00:02.375	0.208
00:00:02.376	0.208
00:00:02.377	0.208
00:00:02.379	0.223
00:00:02.380	0.231
00:00:02.381	0.238
00:00:02.383	0.254
00:00:02.384	0.269
00:00:02.386	0.277
00:00:02.387	0.285
00:00:02.388	0.308
00:00:02.390	0.315
00:00:02.391	0.315
00:00:02.393	0.315
00:00:02.394	0.323
00:00:02.395	0.323
00:00:02.397	0.331
00:00:02.398	0.338
00:00:02.400	0.338
00:00:02.401	0.331
00:00:02.402	0.315
00:00:02.404	0.285
00:00:02.405	0.269
00:00:02.406	0.238
00:00:02.408	0.215
00:00:02.409	0.200
00:00:02.411	0.177
00:00:02.412	0.131
00:00:02.413	0.085
00:00:02.415	0.046
00:00:02.416	0.015
00:00:02.418	-0.031
00:00:02.419	-0.062
00:00:02.420	-0.115
00:00:02.422	-0.169
00:00:02.423	-0.223
00:00:02.425	-0.285
00:00:02.426	-0.346
00:00:02.427	-0.408
00:00:02.429	-0.477
00:00:02.430	-0.515
00:00:02.431	-0.523
00:00:02.433	-0.492
00:00:02.434	-0.477
00:00:02.436	-0.477
00:00:02.437	-0.462
00:00:02.438	-0.446
00:00:02.440	-0.438
00:00:02.441	-0.423
00:00:02.443	-0.377
00:00:02.444	-0.346
00:00:02.445	-0.331
00:00:02.447	-0.308
00:00:02.448	-0.277
00:00:02.450	-0.262
00:00:02.451	-0.223
00:00:02.452	-0.169
00:00:02.454	-0.123
00:00:02.455	-0.085
00:00:02.456	-0.031
00:00:02.458	0.008
00:00:02.459	0.054
00:00:02.461	0.092
00:00:02.462	0.108
00:00:02.463	0.100
00:00:02.465	0.115
00:00:02.466	0.131
00:00:02.468	0.138
00:00:02.469	0.162
00:00:02.470	0.177
00:00:02.472	0.177
00:00:02.473	0.185
00:00:02.475	0.192
00:00:02.476	0.200
00:00:02.477	0.208
00:00:02.479	0.215
00:00:02.480	0.231
00:00:02.481	0.223
00:00:02.483	0.231
00:00:02.484	0.231
00:00:02.486	0.231
00:00:02.487	0.238
00:00:02.488	0.231
00:00:02.490	0.223
00:00:02.491	0.231
00:00:02.493	0.238
00:00:02.494	0.231
00:00:02.495	0.238
00:00:02.497	0.254
00:00:02.498	0.246
00:00:02.500	0.246
00:00:02.501	0.254
00:00:02.502	0.254
00:00:02.504	0.246
00:00:02.505	0.254
00:00:02.506	0.254
00:00:02.508	0.254
00:00:02.509	0.254
00:00:02.511	0.246
00:00:02.512	0.254
00:00:02.513	0.246
00:00:02.515	0.254
00:00:02.516	0.269
00:00:02.518	0.262
00:00:02.519	0.269
00:00:02.520	0.277
00:00:02.522	0.269
00:00:02.523	0.269
00:00:02.525	0.262
00:00:02.526	0.262
00:00:02.527	0.262
00:00:02.529	0.262
00:00:02.530	0.269
00:00:02.531	0.269
00:00:02.533	0.269
00:00:02.534	0.277
00:00:02.536	0.277
00:00:02.537	0.277
00:00:02.538	0.277
00:00:02.540	0.277
00:00:02.541	0.285
00:00:02.543	0.277
00:00:02.544	0.285
00:00:02.545	0.292
00:00:02.547	0.285
00:00:02.548	0.277
00:00:02.550	0.292
00:00:02.551	0.300
00:00:02.552	0.308
00:00:02.554	0.308
00:00:02.555	0.300
00:00:02.556	0.300
00:00:02.558	0.308
00:00:02.559	0.308
00:00:02.561	0.300
00:00:02.562	0.300
00:00:02.563	0.300
00:00:02.565	0.300
00:00:02.566	0.300
00:00:02.568	0.308
00:00:02.569	0.308
00:00:02.570	0.315
00:00:02.572	0.308
00:00:02.573	0.292
00:00:02.575	0.292
00:00:02.576	0.300
00:00:02.577	0.300
00:00:02.579	0.300
00:00:02.580	0.300
00:00:02.581	0.292
00:00:02.583	0.300
00:00:02.584	0.315
00:00:02.586	0.331
00:00:02.587	0.331
00:00:02.588	0.331
00:00:02.590	0.323
00:00:02.591	0.338
00:00:02.593	0.331
00:00:02.594	0.331
00:00:02.595	0.331
00:00:02.597	0.315
00:00:02.598	0.315
00:00:02.600	0.315
00:00:02.601	0.323
00:00:02.602	0.315
00:00:02.604	0.315
00:00:02.605	0.323
00:00:02.606	0.331
00:00:02.608	0.338
00:00:02.609	0.331
00:00:02.611	0.323
00:00:02.612	0.338
00:00:02.613	0.354
00:00:02.615	0.354
00:00:02.616	0.354
00:00:02.618	0.369
00:00:02.619	0.385
00:00:02.620	0.377
00:00:02.622	0.377
00:00:02.623	0.385
00:00:02.625	0.385
00:00:02.626	0.392
00:00:02.627	0.400
00:00:02.629	0.415
00:00:02.630	0.408
00:00:02.631	0.408
00:00:02.633	0.400
00:00:02.634	0.408
00:00:02.636	0.423
00:00:02.637	0.415
00:00:02.638	0.408
00:00:02.640	0.415
00:00:02.641	0.431
00:00:02.643	0.423
00:00:02.644	0.438
00:00:02.645	0.431
00:00:02.647	0.431
00:00:02.648	0.454
00:00:02.650	0.469
00:00:02.651	0.462
00:00:02.652	0.454
00:00:02.654	0.469
00:00:02.655	0.454
00:00:02.656	0.454
00:00:02.658	0.469
00:00:02.659	0.462
00:00:02.661	0.454
00:00:02.662	0.462
00:00:02.663	0.469
00:00:02.665	0.477
00:00:02.666	0.462
00:00:02.668	0.469
00:00:02.669	0.477
00:00:02.670	0.477
00:00:02.672	0.469
00:00:02.673	0.469
00:00:02.675	0.462
00:00:02.676	0.469
00:00:02.677	0.469
00:00:02.679	0.462
00:00:02.680	0.438
00:00:02.681	0.454
00:00:02.683	0.454
00:00:02.684	0.438
00:00:02.686	0.446
00:00:02.687	0.446
00:00:02.688	0.446
00:00:02.690	0.446
00:00:02.691	0.431
00:00:02.693	0.431
00:00:02.694	0.423
00:00:02.695	0.415
00:00:02.697	0.408
00:00:02.698	0.408
00:00:02.700	0.392
00:00:02.701	0.392
00:00:02.702	0.392
00:00:02.704	0.385
00:00:02.705	0.377
00:00:02.706	0.385
00:00:02.708	0.385
00:00:02.709	0.377
00:00:02.711	0.362
00:00:02.712	0.369
00:00:02.713	0.354
00:00:02.715	0.354
00:00:02.716	0.346
00:00:02.718	0.338
00:00:02.719	0.338
00:00:02.720	0.338
00:00:02.722	0.331
00:00:02.723	0.315
00:00:02.725	0.323
00:00:02.726	0.315
00:00:02.727	0.315
00:00:02.729	0.292
00:00:02.730	0.285
00:00:02.731	0.292
00:00:02.733	0.285
00:00:02.734	0.269
00:00:02.736	0.269
00:00:02.737	0.269
00:00:02.738	0.262
00:00:02.740	0.254
00:00:02.741	0.262
00:00:02.743	0.269
00:00:02.744	0.254
00:00:02.745	0.254
00:00:02.747	0.262
00:00:02.748	0.254
00:00:02.750	0.246
00:00:02.751	0.238
00:00:02.752	0.238
00:00:02.754	0.238
00:00:02.755	0.238
00:00:02.756	0.231
00:00:02.758	0.231
00:00:02.759	0.238
00:00:02.761	0.238
00:00:02.762	0.231
00:00:02.763	0.223
00:00:02.765	0.231
00:00:02.766	0.215
00:00:02.768	0.215
00:00:02.769	0.223
00:00:02.770	0.223
00:00:02.772	0.223
00:00:02.773	0.223
00:00:02.775	0.223
00:00:02.776	0.223
00:00:02.777	0.223
00:00:02.779	0.223
00:00:02.780	0.231
00:00:02.781	0.223
00:00:02.783	0.223
00:00:02.784	0.223
00:00:02.786	0.208
00:00:02.787	0.208
00:00:02.788	0.208
00:00:02.790	0.200
00:00:02.791	0.208
00:00:02.793	0.200
00:00:02.794	0.200
00:00:02.795	0.192
00:00:02.797	0.200
00:00:02.798	0.200
00:00:02.800	0.200
00:00:02.801	0.208
00:00:02.802	0.208
00:00:02.804	0.208
00:00:02.805	0.208
00:00:02.806	0.200
00:00:02.808	0.200
00:00:02.809	0.200
00:00:02.811	0.192
00:00:02.812	0.192
00:00:02.813	0.192
00:00:02.815	0.185
00:00:02.816	0.200
00:00:02.818	0.200
00:00:02.819	0.208
00:00:02.820	0.200
00:00:02.822	0.200
00:00:02.823	0.208
00:00:02.825	0.200
00:00:02.826	0.200
00:00:02.827	0.200
00:00:02.829	0.192
00:00:02.830	0.200
00:00:02.831	0.200
00:00:02.833	0.200
00:00:02.834	0.200
00:00:02.836	0.192
00:00:02.837	0.192
00:00:02.838	0.200
00:00:02.840	0.200
00:00:02.841	0.185
00:00:02.843	0.185
00:00:02.844	0.192
00:00:02.845	0.192
00:00:02.847	0.192
00:00:02.848	0.192
00:00:02.850	0.192
00:00:02.851	0.192
00:00:02.852	0.200
00:00:02.854	0.200
00:00:02.855	0.208
00:00:02.856	0.208
00:00:02.858	0.215
00:00:02.859	0.208
00:00:02.861	0.215
00:00:02.862	0.215
00:00:02.863	0.208
00:00:02.865	0.208
00:00:02.866	0.208
00:00:02.868	0.208
00:00:02.869	0.200
00:00:02.870	0.192
00:00:02.872	0.192
00:00:02.873	0.192
00:00:02.875	0.192
00:00:02.876	0.185
00:00:02.877	0.185
00:00:02.879	0.177
00:00:02.880	0.177
00:00:02.881	0.192
00:00:02.883	0.192
00:00:02.884	0.185
00:00:02.886	0.192
00:00:02.887	0.192
00:00:02.888	0.200
00:00:02.890	0.185
00:00:02.891	0.192
00:00:02.893	0.200
00:00:02.894	0.192
00:00:02.895	0.192
00:00:02.897	0.200
00:00:02.898	0.192
00:00:02.900	0.185
00:00:02.901	0.192
00:00:02.902	0.192
00:00:02.904	0.192
00:00:02.905	0.185
00:00:02.906	0.192
00:00:02.908	0.185
00:00:02.909	0.177
00:00:02.911	0.192
00:00:02.912	0.185
00:00:02.913	0.185
00:00:02.915	0.185
00:00:02.916	0.185
00:00:02.918	0.185
00:00:02.919	0.185
00:00:02.920	0.185
00:00:02.922	0.185
00:00:02.923	0.185
00:00:02.925	0.192
00:00:02.926	0.185
00:00:02.927	0.169
00:00:02.929	0.177
00:00:02.930	0.185
00:00:02.931	0.192
00:00:02.933	0.192
00:00:02.934	0.177
00:00:02.936	0.169
00:00:02.937	0.162
00:00:02.938	0.162
00:00:02.940	0.162
00:00:02.941	0.162
00:00:02.943	0.169
00:00:02.944	0.177
00:00:02.945	0.177
00:00:02.947	0.177
00:00:02.948	0.185
00:00:02.950	0.185
00:00:02.951	0.192
00:00:02.952	0.185
00:00:02.954	0.192
00:00:02.955	0.177
00:00:02.956	0.177
00:00:02.958	0.185
00:00:02.959	0.185
00:00:02.961	0.185
00:00:02.962	0.185
00:00:02.963	0.177
00:00:02.965	0.185
00:00:02.966	0.185
00:00:02.968	0.192
00:00:02.969	0.185
00:00:02.970	0.185
00:00:02.972	0.200
00:00:02.973	0.200
00:00:02.975	0.200
00:00:02.976	0.192
00:00:02.977	0.192
00:00:02.979	0.192
00:00:02.980	0.192
00:00:02.981	0.192
00:00:02.983	0.185
00:00:02.984	0.185
00:00:02.986	0.185
00:00:02.987	0.185
00:00:02.988	0.185
00:00:02.990	0.177
00:00:02.991	0.185
00:00:02.993	0.177
00:00:02.994	0.185
00:00:02.995	0.185
00:00:02.997	0.177
00:00:02.998	0.177
00:00:03.000	0.177
00:00:03.001	0.185
00:00:03.002	0.192
00:00:03.004	0.192
00:00:03.005	0.185
00:00:03.006	0.192
00:00:03.008	0.200
00:00:03.009	0.200
00:00:03.011	0.200
00:00:03.012	0.200
00:00:03.013	0.192
00:00:03.015	0.200
00:00:03.016	0.215
00:00:03.018	0.208
00:00:03.019	0.192
00:00:03.020	0.192
00:00:03.022	0.192
00:00:03.023	0.200
00:00:03.025	0.200
00:00:03.026	0.185
00:00:03.027	0.192
00:00:03.029	0.192
00:00:03.030	0.200
00:00:03.031	0.192
00:00:03.033	0.200
00:00:03.034	0.200
00:00:03.036	0.200
00:00:03.037	0.215
00:00:03.038	0.200
00:00:03.040	0.208
00:00:03.041	0.200
00:00:03.043	0.208
00:00:03.044	0.208
00:00:03.045	0.208
00:00:03.047	0.200
00:00:03.048	0.200
00:00:03.050	0.200
00:00:03.051	0.215
00:00:03.052	0.208
00:00:03.054	0.200
00:00:03.055	0.208
00:00:03.056	0.200
00:00:03.058	0.200
00:00:03.059	0.200
00:00:03.061	0.200
00:00:03.062	0.208
00:00:03.063	0.208
00:00:03.065	0.200
00:00:03.066	0.208
00:00:03.068	0.200
00:00:03.069	0.208
00:00:03.070	0.208
00:00:03.072	0.200
00:00:03.073	0.192
00:00:03.075	0.192
00:00:03.076	0.200
00:00:03.077	0.200
00:00:03.079	0.208
00:00:03.080	0.215
00:00:03.081	0.215
00:00:03.083	0.208
00:00:03.084	0.192
00:00:03.086	0.208
00:00:03.087	0.215
00:00:03.088	0.215
00:00:03.090	0.208
00:00:03.091	0.215
00:00:03.093	0.215
00:00:03.094	0.215
00:00:03.095	0.215
00:00:03.097	0.215
00:00:03.098	0.223
00:00:03.100	0.215
00:00:03.101	0.215
00:00:03.102	0.215
00:00:03.104	0.223
00:00:03.105	0.223
00:00:03.106	0.215
00:00:03.108	0.215
00:00:03.109	0.215
00:00:03.111	0.223
00:00:03.112	0.215
00:00:03.113	0.215
00:00:03.115	0.215
00:00:03.116	0.208
00:00:03.118	0.215
00:00:03.119	0.223
00:00:03.120	0.223
00:00:03.122	0.223
00:00:03.123	0.215
00:00:03.125	0.223
00:00:03.126	0.231
00:00:03.127	0.223
00:00:03.129	0.215
00:00:03.130	0.215
00:00:03.131	0.223
00:00:03.133	0.215
00:00:03.134	0.215
00:00:03.136	0.215
00:00:03.137	0.208
00:00:03.138	0.200
00:00:03.140	0.208
00:00:03.141	0.215
00:00:03.143	0.215
00:00:03.144	0.215
00:00:03.145	0.215
00:00:03.147	0.223
00:00:03.148	0.231
00:00:03.150	0.231
00:00:03.151	0.231
00:00:03.152	0.238
00:00:03.154	0.238
00:00:03.155	0.238
00:00:03.156	0.231
00:00:03.158	0.223
00:00:03.159	0.231
00:00:03.161	0.231
00:00:03.162	0.223
00:00:03.163	0.223
00:00:03.165	0.223
00:00:03.166	0.208
00:00:03.168	0.223
00:00:03.169	0.223
00:00:03.170	0.231
00:00:03.172	0.246
00:00:03.173	0.246
00:00:03.175	0.246
00:00:03.176	0.254
00:00:03.177	0.262
00:00:03.179	0.262
00:00:03.180	0.262
00:00:03.181	0.269
00:00:03.183	0.285
00:00:03.184	0.285
00:00:03.186	0.285
00:00:03.187	0.277
00:00:03.188	0.277
00:00:03.190	0.285
00:00:03.191	0.285
00:00:03.193	0.285
00:00:03.194	0.277
00:00:03.195	0.269
00:00:03.197	0.254
00:00:03.198	0.254
00:00:03.200	0.262
00:00:03.201	0.262
00:00:03.202	0.277
00:00:03.204	0.285
00:00:03.205	0.277
00:00:03.206	0.277
00:00:03.208	0.285
00:00:03.209	0.292
00:00:03.211	0.292
00:00:03.212	0.300
00:00:03.213	0.300
00:00:03.215	0.300
00:00:03.216	0.292
00:00:03.218	0.292
00:00:03.219	0.292
00:00:03.220	0.308
00:00:03.222	0.308
00:00:03.223	0.308
00:00:03.225	0.308
00:00:03.226	0.308
00:00:03.227	0.308
00:00:03.229	0.315
00:00:03.230	0.308
00:00:03.231	0.300
00:00:03.233	0.315
00:00:03.234	0.315
00:00:03.236	0.308
00:00:03.237	0.300
00:00:03.238	0.300
00:00:03.240	0.308
00:00:03.241	0.300
00:00:03.243	0.308
00:00:03.244	0.308
00:00:03.245	0.308
00:00:03.247	0.308
00:00:03.248	0.315
00:00:03.250	0.315
00:00:03.251	0.308
00:00:03.252	0.315
00:00:03.254	0.308
00:00:03.255	0.308
00:00:03.256	0.315
00:00:03.258	0.315
00:00:03.259	0.300
00:00:03.261	0.292
00:00:03.262	0.300
00:00:03.263	0.308
00:00:03.265	0.292
00:00:03.266	0.292
00:00:03.268	0.292
00:00:03.269	0.292
00:00:03.270	0.285
00:00:03.272	0.277
00:00:03.273	0.269
00:00:03.275	0.277
00:00:03.276	0.285
00:00:03.277	0.269
00:00:03.279	0.269
00:00:03.280	0.269
00:00:03.281	0.269
00:00:03.283	0.262
00:00:03.284	0.254
00:00:03.286	0.254
00:00:03.287	0.246
00:00:03.288	0.246
00:00:03.290	0.246
00:00:03.291	0.231
00:00:03.293	0.231
00:00:03.294	0.246
00:00:03.295	0.231
00:00:03.297	0.215
00:00:03.298	0.223
00:00:03.300	0.231
00:00:03.301	0.208
00:00:03.302	0.200
00:00:03.304	0.215
00:00:03.305	0.208
00:00:03.306	0.200
00:00:03.308	0.208
00:00:03.309	0.208
00:00:03.311	0.200
00:00:03.312	0.200
00:00:03.313	0.200
00:00:03.315	0.192
00:00:03.316	0.200
00:00:03.318	0.200
00:00:03.319	0.192
00:00:03.320	0.200
00:00:03.322	0.208
00:00:03.323	0.200
00:00:03.325	0.215
00:00:03.326	0.223
00:00:03.327	0.215
00:00:03.329	0.223
00:00:03.330	0.223
00:00:03.331	0.215
00:00:03.333	0.231
00:00:03.334	0.238
00:00:03.336	0.231
00:00:03.337	0.223
00:00:03.338	0.238
00:00:03.340	0.246
00:00:03.341	0.238
00:00:03.343	0.246
00:00:03.344	0.246
00:00:03.345	0.254
00:00:03.347	0.246
00:00:03.348	0.254
00:00:03.350	0.246
00:00:03.351	0.254
00:00:03.352	0.269
00:00:03.354	0.285
00:00:03.355	0.292
00:00:03.356	0.308
00:00:03.358	0.323
00:00:03.359	0.331
00:00:03.361	0.338
00:00:03.362	0.369
00:00:03.363	0.385
00:00:03.365	0.400
00:00:03.366	0.423
00:00:03.368	0.454
00:00:03.369	0.462
00:00:03.370	0.469
00:00:03.372	0.508
00:00:03.373	0.523
00:00:03.375	0.554
00:00:03.376	0.562
00:00:03.377	0.577
00:00:03.379	0.585
00:00:03.380	0.577
00:00:03.381	0.562
00:00:03.383	0.562
00:00:03.384	0.562
00:00:03.386	0.554
00:00:03.387	0.546
00:00:03.388	0.538
00:00:03.390	0.508
00:00:03.391	0.477
00:00:03.393	0.469
00:00:03.394	0.446
00:00:03.395	0.415
00:00:03.397	0.392
00:00:03.398	0.385
00:00:03.400	0.392
00:00:03.401	0.392
00:00:03.402	0.385
00:00:03.404	0.362
00:00:03.405	0.362
00:00:03.406	0.362
00:00:03.408	0.354
00:00:03.409	0.346
00:00:03.411	0.346
00:00:03.412	0.346
00:00:03.413	0.331
00:00:03.415	0.331
00:00:03.416	0.331
00:00:03.418	0.323
00:00:03.419	0.323
00:00:03.420	0.331
00:00:03.422	0.315
00:00:03.423	0.315
00:00:03.425	0.323
00:00:03.426	0.315
00:00:03.427	0.300
00:00:03.429	0.285
00:00:03.430	0.285
00:00:03.431	0.269
00:00:03.433	0.269
00:00:03.434	0.269
00:00:03.436	0.254
00:00:03.437	0.246
00:00:03.438	0.254
00:00:03.440	0.246
00:00:03.441	0.246
00:00:03.443	0.246
00:00:03.444	0.246
00:00:03.445	0.231
00:00:03.447	0.231
00:00:03.448	0.238
00:00:03.450	0.223
00:00:03.451	0.231
00:00:03.452	0.223
00:00:03.454	0.215
00:00:03.455	0.208
00:00:03.456	0.223
00:00:03.458	0.215
00:00:03.459	0.208
00:00:03.461	0.215
00:00:03.462	0.215
00:00:03.463	0.200
00:00:03.465	0.215
00:00:03.466	0.215
00:00:03.468	0.215
00:00:03.469	0.215
00:00:03.470	0.215
00:00:03.472	0.208
00:00:03.473	0.223
00:00:03.475	0.231
00:00:03.476	0.223
00:00:03.477	0.215
00:00:03.479	0.223
00:00:03.480	0.223
00:00:03.481	0.215
00:00:03.483	0.215
00:00:03.484	0.223
00:00:03.486	0.215
00:00:03.487	0.223
00:00:03.488	0.215
00:00:03.490	0.215
00:00:03.491	0.223
00:00:03.493	0.215
00:00:03.494	0.215
00:00:03.495	0.208
00:00:03.497	0.208
00:00:03.498	0.223
00:00:03.500	0.215
00:00:03.501	0.215
00:00:03.502	0.223
00:00:03.504	0.215
00:00:03.505	0.215
00:00:03.506	0.223
00:00:03.508	0.223
00:00:03.509	0.223
00:00:03.511	0.231
00:00:03.512	0.215
00:00:03.513	0.223
00:00:03.515	0.231
00:00:03.516	0.223
00:00:03.518	0.215
00:00:03.519	0.215
00:00:03.520	0.223
00:00:03.522	0.208
00:00:03.523	0.208
00:00:03.525	0.215
00:00:03.526	0.208
00:00:03.527	0.200
00:00:03.529	0.200
00:00:03.530	0.200
00:00:03.531	0.208
00:00:03.533	0.208
00:00:03.534	0.200
00:00:03.536	0.208
00:00:03.537	0.215
00:00:03.538	0.208
00:00:03.540	0.215
00:00:03.541	0.215
00:00:03.543	0.208
00:00:03.544	0.200
00:00:03.545	0.208
00:00:03.547	0.200
00:00:03.548	0.192
00:00:03.550	0.200
00:00:03.551	0.192
00:00:03.552	0.169
00:00:03.554	0.169
00:00:03.555	0.162
00:00:03.556	0.169
00:00:03.558	0.162
00:00:03.559	0.169
00:00:03.561	0.177
00:00:03.562	0.154
00:00:03.563	0.162
00:00:03.565	0.177
00:00:03.566	0.169
00:00:03.568	0.169
00:00:03.569	0.162
00:00:03.570	0.162
00:00:03.572	0.162
00:00:03.573	0.162
00:00:03.575	0.162
00:00:03.576	0.162
00:00:03.577	0.162
00:00:03.579	0.162
00:00:03.580	0.162
00:00:03.581	0.162
00:00:03.583	0.162
00:00:03.584	0.162
00:00:03.586	0.169
00:00:03.587	0.146
00:00:03.588	0.146
00:00:03.590	0.154
00:00:03.591	0.154
00:00:03.593	0.146
00:00:03.594	0.146
00:00:03.595	0.146
00:00:03.597	0.154
00:00:03.598	0.146
00:00:03.600	0.154
00:00:03.601	0.169
00:00:03.602	0.162
00:00:03.604	0.154
00:00:03.605	0.154
00:00:03.606	0.169
00:00:03.608	0.154
00:00:03.609	0.154
00:00:03.611	0.154
00:00:03.612	0.154
00:00:03.613	0.146
00:00:03.615	0.146
00:00:03.616	0.138
00:00:03.618	0.131
00:00:03.619	0.123
00:00:03.620	0.115
00:00:03.622	0.123
00:00:03.623	0.131
00:00:03.625	0.131
00:00:03.626	0.123
00:00:03.627	0.115
00:00:03.629	0.115
00:00:03.630	0.108
00:00:03.631	0.100
00:00:03.633	0.100
00:00:03.634	0.092
00:00:03.636	0.100
00:00:03.637	0.100
00:00:03.638	0.100
00:00:03.640	0.085
00:00:03.641	0.085
00:00:03.643	0.077
00:00:03.644	0.077
00:00:03.645	0.077
00:00:03.647	0.077
00:00:03.648	0.085
00:00:03.650	0.092
00:00:03.651	0.085
00:00:03.652	0.092
00:00:03.654	0.100
00:00:03.655	0.100
00:00:03.656	0.108
00:00:03.658	0.123
00:00:03.659	0.115
00:00:03.661	0.108
00:00:03.662	0.115
00:00:03.663	0.115
00:00:03.665	0.115
00:00:03.666	0.123
00:00:03.668	0.123
00:00:03.669	0.131
00:00:03.670	0.138
00:00:03.672	0.131
00:00:03.673	0.115
00:00:03.675	0.115
00:00:03.676	0.123
00:00:03.677	0.115
00:00:03.679	0.123
00:00:03.680	0.131
00:00:03.681	0.123
00:00:03.683	0.138
00:00:03.684	0.146
00:00:03.686	0.146
00:00:03.687	0.146
00:00:03.688	0.138
00:00:03.690	0.146
00:00:03.691	0.146
00:00:03.693	0.162
00:00:03.694	0.154
00:00:03.695	0.154
00:00:03.697	0.162
00:00:03.698	0.162
00:00:03.700	0.162
00:00:03.701	0.177
00:00:03.702	0.177
00:00:03.704	0.162
00:00:03.705	0.177
00:00:03.706	0.169
00:00:03.708	0.162
00:00:03.709	0.162
00:00:03.711	0.185
00:00:03.712	0.177
00:00:03.713	0.177
00:00:03.715	0.192
00:00:03.716	0.200
00:00:03.718	0.192
00:00:03.719	0.200
00:00:03.720	0.192
00:00:03.722	0.192
00:00:03.723	0.208
00:00:03.725	0.200
00:00:03.726	0.192
00:00:03.727	0.208
00:00:03.729	0.215
00:00:03.730	0.215
00:00:03.731	0.223
00:00:03.733	0.223
00:00:03.734	0.231
00:00:03.736	0.231
00:00:03.737	0.238
00:00:03.738	0.238
00:00:03.740	0.238
00:00:03.741	0.231
00:00:03.743	0.223
00:00:03.744	0.223
00:00:03.745	0.223
00:00:03.747	0.215
00:00:03.748	0.231
00:00:03.750	0.223
00:00:03.751	0.208
00:00:03.752	0.223
00:00:03.754	0.223
00:00:03.755	0.200
00:00:03.756	0.215
00:00:03.758	0.223
00:00:03.759	0.215
00:00:03.761	0.223
00:00:03.762	0.223
00:00:03.763	0.223
00:00:03.765	0.223
00:00:03.766	0.231
00:00:03.768	0.223
00:00:03.769	0.223
00:00:03.770	0.231
00:00:03.772	0.231
00:00:03.773	0.231
00:00:03.775	0.238
00:00:03.776	0.231
00:00:03.777	0.238
00:00:03.779	0.238
00:00:03.780	0.231
00:00:03.781	0.223
00:00:03.783	0.223
00:00:03.784	0.215
00:00:03.786	0.223
00:00:03.787	0.215
00:00:03.788	0.208
00:00:03.790	0.215
00:00:03.791	0.215
00:00:03.793	0.208
00:00:03.794	0.223
00:00:03.795	0.231
00:00:03.797	0.215
00:00:03.798	0.215
00:00:03.800	0.231
00:00:03.801	0.231
00:00:03.802	0.238
00:00:03.804	0.254
00:00:03.805	0.254
00:00:03.806	0.246
00:00:03.808	0.231
00:00:03.809	0.231
00:00:03.811	0.223
00:00:03.812	0.231
00:00:03.813	0.231
00:00:03.815	0.231
00:00:03.816	0.215
00:00:03.818	0.215
00:00:03.819	0.231
00:00:03.820	0.231
00:00:03.822	0.238
00:00:03.823	0.223
00:00:03.825	0.223
00:00:03.826	0.231
00:00:03.827	0.231
00:00:03.829	0.238
00:00:03.830	0.246
00:00:03.831	0.238
00:00:03.833	0.231
00:00:03.834	0.238
00:00:03.836	0.254
00:00:03.837	0.231
00:00:03.838	0.238
00:00:03.840	0.254
00:00:03.841	0.246
00:00:03.843	0.238
00:00:03.844	0.231
00:00:03.845	0.223
00:00:03.847	0.215
00:00:03.848	0.215
00:00:03.850	0.215
00:00:03.851	0.215
00:00:03.852	0.208
00:00:03.854	0.215
00:00:03.855	0.200
00:00:03.856	0.200
00:00:03.858	0.192
00:00:03.859	0.185
00:00:03.861	0.192
00:00:03.862	0.208
00:00:03.863	0.215
00:00:03.865	0.215
00:00:03.866	0.215
00:00:03.868	0.215
00:00:03.869	0.208
00:00:03.870	0.215
00:00:03.872	0.223
00:00:03.873	0.215
00:00:03.875	0.231
00:00:03.876	0.238
00:00:03.877	0.231
00:00:03.879	0.246
00:00:03.880	0.262
00:00:03.881	0.277
00:00:03.883	0.292
00:00:03.884	0.315
00:00:03.886	0.331
00:00:03.887	0.331
00:00:03.888	0.331
00:00:03.890	0.338
00:00:03.891	0.338
00:00:03.893	0.346
00:00:03.894	0.354
00:00:03.895	0.346
00:00:03.897	0.346
00:00:03.898	0.323
00:00:03.900	0.308
00:00:03.901	0.285
00:00:03.902	0.262
00:00:03.904	0.231
00:00:03.905	0.208
00:00:03.906	0.185
00:00:03.908	0.154
00:00:03.909	0.100
00:00:03.911	0.069
00:00:03.912	0.038
00:00:03.913	-0.015
00:00:03.915	-0.054
00:00:03.916	-0.092
00:00:03.918	-0.138
00:00:03.919	-0.200
00:00:03.920	-0.277
00:00:03.922	-0.323
00:00:03.923	-0.385
00:00:03.925	-0.462
00:00:03.926	-0.500
00:00:03.927	-0.515
00:00:03.929	-0.492
00:00:03.930	-0.485
00:00:03.931	-0.469
00:00:03.933	-0.462
00:00:03.934	-0.438
00:00:03.936	-0.438
00:00:03.937	-0.423
00:00:03.938	-0.392
00:00:03.940	-0.362
00:00:03.941	-0.338
00:00:03.943	-0.315
00:00:03.944	-0.292
00:00:03.945	-0.262
00:00:03.947	-0.223
00:00:03.948	-0.177
00:00:03.950	-0.131
00:00:03.951	-0.077
00:00:03.952	-0.046
00:00:03.954	0.000
00:00:03.955	0.054
00:00:03.956	0.092
00:00:03.958	0.108
00:00:03.959	0.108
00:00:03.961	0.123
00:00:03.962	0.138
00:00:03.963	0.131
00:00:03.965	0.146
00:00:03.966	0.177
00:00:03.968	0.177
00:00:03.969	0.177
00:00:03.970	0.192
00:00:03.972	0.208
00:00:03.973	0.200
00:00:03.975	0.208
00:00:03.976	0.215
00:00:03.977	0.215
00:00:03.979	0.208
00:00:03.980	0.215
00:00:03.981	0.223
00:00:03.983	0.223
00:00:03.984	0.231
00:00:03.986	0.231
00:00:03.987	0.231
00:00:03.988	0.231
00:00:03.990	0.238
00:00:03.991	0.231
00:00:03.993	0.238
00:00:03.994	0.246
00:00:03.995	0.238
00:00:03.997	0.231
00:00:03.998	0.246
00:00:04.000	0.238
00:00:04.001	0.246
00:00:04.002	0.246
00:00:04.004	0.254
00:00:04.005	0.262
00:00:04.006	0.246
00:00:04.008	0.238
00:00:04.009	0.246
00:00:04.011	0.246
00:00:04.012	0.238
00:00:04.013	0.246
00:00:04.015	0.262
00:00:04.016	0.269
00:00:04.018	0.269
00:00:04.019	0.277
00:00:04.020	0.269
00:00:04.022	0.262
00:00:04.023	0.262
00:00:04.025	0.262
00:00:04.026	0.254
00:00:04.027	0.269
00:00:04.029	0.269
00:00:04.030	0.269
00:00:04.031	0.269
00:00:04.033	0.262
00:00:04.034	0.254
00:00:04.036	0.254
00:00:04.037	0.262
00:00:04.038	0.277
00:00:04.040	0.269
00:00:04.041	0.277
00:00:04.043	0.277
00:00:04.044	0.277
00:00:04.045	0.285
00:00:04.047	0.292
00:00:04.048	0.285
00:00:04.050	0.285
00:00:04.051	0.300
00:00:04.052	0.292
00:00:04.054	0.277
00:00:04.055	0.292
00:00:04.056	0.308
00:00:04.058	0.300
00:00:04.059	0.292
00:00:04.061	0.292
00:00:04.062	0.292
00:00:04.063	0.292
00:00:04.065	0.300
00:00:04.066	0.308
00:00:04.068	0.300
00:00:04.069	0.292
00:00:04.070	0.292
00:00:04.072	0.292
00:00:04.073	0.300
00:00:04.075	0.315
00:00:04.076	0.308
00:00:04.077	0.315
00:00:04.079	0.315
00:00:04.080	0.323
00:00:04.081	0.331
00:00:04.083	0.354
00:00:04.084	0.354
00:00:04.086	0.338
00:00:04.087	0.346
00:00:04.088	0.354
00:00:04.090	0.338
00:00:04.091	0.346
00:00:04.093	0.331
00:00:04.094	0.323
00:00:04.095	0.331
00:00:04.097	0.346
00:00:04.098	0.338
00:00:04.100	0.331
00:00:04.101	0.338
00:00:04.102	0.354
00:00:04.104	0.338
00:00:04.105	0.346
00:00:04.106	0.346
00:00:04.108	0.354
00:00:04.109	0.362
00:00:04.111	0.369
00:00:04.112	0.369
00:00:04.113	0.369
00:00:04.115	0.392
00:00:04.116	0.400
00:00:04.118	0.392
00:00:04.119	0.392
00:00:04.120	0.400
00:00:04.122	0.400
00:00:04.123	0.408
00:00:04.125	0.408
00:00:04.126	0.408
00:00:04.127	0.408
00:00:04.129	0.408
00:00:04.130	0.408
00:00:04.131	0.408
00:00:04.133	0.415
00:00:04.134	0.415
00:00:04.136	0.408
00:00:04.137	0.408
00:00:04.138	0.423
00:00:04.140	0.431
00:00:04.141	0.438
00:00:04.143	0.446
00:00:04.144	0.454
00:00:04.145	0.454
00:00:04.147	0.454
00:00:04.148	0.446
00:00:04.150	0.469
00:00:04.151	0.469
00:00:04.152	0.454
00:00:04.154	0.454
00:00:04.155	0.469
00:00:04.156	0.462
00:00:04.158	0.454
00:00:04.159	0.462
00:00:04.161	0.462
00:00:04.162	0.462
00:00:04.163	0.469
00:00:04.165	0.477
00:00:04.166	0.469
00:00:04.168	0.469
00:00:04.169	0.477
00:00:04.170	0.454
00:00:04.172	0.454
00:00:04.173	0.462
00:00:04.175	0.454
00:00:04.176	0.454
00:00:04.177	0.462
00:00:04.179	0.454
00:00:04.180	0.454
00:00:04.181	0.454
00:00:04.183	0.446
00:00:04.184	0.454
00:00:04.186	0.454
00:00:04.187	0.446
00:00:04.188	0.431
00:00:04.190	0.431
00:00:04.191	0.423
00:00:04.193	0.423
00:00:04.194	0.408
00:00:04.195	0.415
00:00:04.197	0.408
00:00:04.198	0.408
00:00:04.200	0.400
00:00:04.201	0.392
00:00:04.202	0.392
00:00:04.204	0.392
00:00:04.205	0.377
00:00:04.206	0.377
00:00:04.208	0.377
00:00:04.209	0.369
00:00:04.211	0.354
00:00:04.212	0.354
00:00:04.213	0.354
00:00:04.215	0.346
00:00:04.216	0.354
00:00:04.218	0.346
00:00:04.219	0.331
00:00:04.220	0.323
00:00:04.222	0.338
00:00:04.223	0.323
00:00:04.225	0.315
00:00:04.226	0.308
00:00:04.227	0.300
00:00:04.229	0.285
00:00:04.230	0.300
00:00:04.231	0.300
00:00:04.233	0.269
00:00:04.234	0.269
00:00:04.236	0.269
00:00:04.237	0.269
00:00:04.238	0.269
00:00:04.240	0.262
00:00:04.241	0.262
00:00:04.243	0.262
00:00:04.244	0.246
00:00:04.245	0.231
00:00:04.247	0.231
00:00:04.248	0.246
00:00:04.250	0.246
00:00:04.251	0.238
00:00:04.252	0.223
00:00:04.254	0.223
00:00:04.255	0.223
00:00:04.256	0.231
00:00:04.258	0.231
00:00:04.259	0.223
00:00:04.261	0.223
00:00:04.262	0.231
00:00:04.263	0.223
00:00:04.265	0.215
00:00:04.266	0.215
00:00:04.268	0.223
00:00:04.269	0.215
00:00:04.270	0.215
00:00:04.272	0.215
00:00:04.273	0.215
00:00:04.275	0.223
00:00:04.276	0.223
00:00:04.277	0.223
00:00:04.279	0.223
00:00:04.280	0.215
00:00:04.281	0.200
00:00:04.283	0.215
00:00:04.284	0.208
00:00:04.286	0.215
00:00:04.287	0.215
00:00:04.288	0.208
00:00:04.290	0.208
00:00:04.291	0.215
00:00:04.293	0.215
00:00:04.294	0.200
00:00:04.295	0.200
00:00:04.297	0.215
00:00:04.298	0.208
00:00:04.300	0.200
00:00:04.301	0.208
00:00:04.302	0.192
00:00:04.304	0.200
00:00:04.305	0.208
00:00:04.306	0.208
00:00:04.308	0.208
00:00:04.309	0.215
00:00:04.311	0.215
00:00:04.312	0.215
00:00:04.313	0.208
00:00:04.315	0.208
00:00:04.316	0.208
00:00:04.318	0.208
00:00:04.319	0.208
00:00:04.320	0.200
00:00:04.322	0.208
00:00:04.323	0.208
00:00:04.325	0.200
00:00:04.326	0.200
00:00:04.327	0.200
00:00:04.329	0.200
00:00:04.330	0.192
00:00:04.331	0.185
00:00:04.333	0.192
00:00:04.334	0.185
00:00:04.336	0.177
00:00:04.337	0.169
00:00:04.338	0.177
00:00:04.340	0.185
00:00:04.341	0.185
00:00:04.343	0.177
00:00:04.344	0.177
00:00:04.345	0.185
00:00:04.347	0.185
00:00:04.348	0.192
00:00:04.350	0.192
00:00:04.351	0.177
00:00:04.352	0.200
00:00:04.354	0.208
00:00:04.355	0.223
00:00:04.356	0.215
00:00:04.358	0.223
00:00:04.359	0.215
00:00:04.361	0.208
00:00:04.362	0.208
00:00:04.363	0.208
00:00:04.365	0.200
00:00:04.366	0.208
00:00:04.368	0.192
00:00:04.369	0.192
00:00:04.370	0.192
00:00:04.372	0.192
00:00:04.373	0.192
00:00:04.375	0.185
00:00:04.376	0.185
00:00:04.377	0.169
00:00:04.379	0.177
00:00:04.380	0.185
00:00:04.381	0.192
00:00:04.383	0.200
00:00:04.384	0.208
00:00:04.386	0.208
00:00:04.387	0.215
00:00:04.388	0.208
00:00:04.390	0.192
00:00:04.391	0.192
00:00:04.393	0.200
00:00:04.394	0.192
00:00:04.395	0.192
00:00:04.397	0.192
00:00:04.398	0.192
00:00:04.400	0.192
00:00:04.401	0.192
00:00:04.402	0.200
00:00:04.404	0.208
00:00:04.405	0.208
00:00:04.406	0.192
00:00:04.408	0.192
00:00:04.409	0.208
00:00:04.411	0.200
00:00:04.412	0.192
00:00:04.413	0.208
00:00:04.415	0.200
00:00:04.416	0.208
00:00:04.418	0.208
00:00:04.419	0.208
00:00:04.420	0.200
00:00:04.422	0.200
00:00:04.423	0.208
00:00:04.425	0.208
00:00:04.426	0.200
00:00:04.427	0.200
00:00:04.429	0.192
00:00:04.430	0.185
00:00:04.431	0.185
00:00:04.433	0.169
00:00:04.434	0.169
00:00:04.436	0.162
00:00:04.437	0.169
00:00:04.438	0.169
00:00:04.440	0.169
00:00:04.441	0.177
00:00:04.443	0.169
00:00:04.444	0.185
00:00:04.445	0.200
00:00:04.447	0.192
00:00:04.448	0.192
00:00:04.450	0.185
00:00:04.451	0.185
00:00:04.452	0.192
00:00:04.454	0.192
00:00:04.455	0.185
00:00:04.456	0.192
00:00:04.458	0.192
00:00:04.459	0.192
00:00:04.461	0.192
00:00:04.462	0.185
00:00:04.463	0.192
00:00:04.465	0.192
00:00:04.466	0.185
00:00:04.468	0.192
00:00:04.469	0.215
00:00:04.470	0.208
00:00:04.472	0.200
00:00:04.473	0.208
00:00:04.475	0.200
00:00:04.476	0.200
00:00:04.477	0.215
00:00:04.479	0.208
00:00:04.480	0.192
00:00:04.481	0.200
00:00:04.483	0.200
00:00:04.484	0.185
00:00:04.486	0.185
00:00:04.487	0.185
00:00:04.488	0.192
00:00:04.490	0.185
00:00:04.491	0.177
00:00:04.493	0.185
00:00:04.494	0.185
00:00:04.495	0.192
00:00:04.497	0.192
00:00:04.498	0.200
00:00:04.500	0.208
00:00:04.501	0.215
00:00:04.502	0.223
00:00:04.504	0.223
00:00:04.505	0.215
00:00:04.506	0.223
00:00:04.508	0.231
00:00:04.509	0.215
00:00:04.511	0.215
00:00:04.512	0.215
00:00:04.513	0.215
00:00:04.515	0.215
00:00:04.516	0.215
00:00:04.518	0.215
00:00:04.519	0.223
00:00:04.520	0.208
00:00:04.522	0.200
00:00:04.523	0.208
00:00:04.525	0.208
00:00:04.526	0.215
00:00:04.527	0.208
00:00:04.529	0.208
00:00:04.530	0.200
00:00:04.531	0.208
00:00:04.533	0.223
00:00:04.534	0.215
00:00:04.536	0.208
00:00:04.537	0.208
00:00:04.538	0.215
00:00:04.540	0.223
00:00:04.541	0.215
00:00:04.543	0.215
00:00:04.544	0.215
00:00:04.545	0.208
00:00:04.547	0.215
00:00:04.548	0.215
00:00:04.550	0.215
00:00:04.551	0.208
00:00:04.552	0.208
00:00:04.554	0.208
00:00:04.555	0.208
00:00:04.556	0.208
00:00:04.558	0.200
00:00:04.559	0.192
00:00:04.561	0.200
00:00:04.562	0.200
00:00:04.563	0.200
00:00:04.565	0.200
00:00:04.566	0.208
00:00:04.568	0.200
00:00:04.569	0.192
00:00:04.570	0.192
00:00:04.572	0.208
00:00:04.573	0.208
00:00:04.575	0.200
00:00:04.576	0.192
00:00:04.577	0.200
00:00:04.579	0.215
00:00:04.580	0.200
00:00:04.581	0.215
00:00:04.583	0.208
00:00:04.584	0.200
00:00:04.586	0.208
00:00:04.587	0.208
00:00:04.588	0.192
00:00:04.590	0.200
00:00:04.591	0.200
00:00:04.593	0.208
00:00:04.594	0.208
00:00:04.595	0.200
00:00:04.597	0.200
00:00:04.598	0.200
00:00:04.600	0.200
00:00:04.601	0.208
00:00:04.602	0.215
00:00:04.604	0.208
00:00:04.605	0.200
00:00:04.606	0.200
00:00:04.608	0.215
00:00:04.609	0.215
00:00:04.611	0.208
00:00:04.612	0.208
00:00:04.613	0.215
00:00:04.615	0.223
00:00:04.616	0.238
00:00:04.618	0.223
00:00:04.619	0.223
00:00:04.620	0.223
00:00:04.622	0.231
00:00:04.623	0.238
00:00:04.625	0.238
00:00:04.626	0.238
00:00:04.627	0.231
00:00:04.629	0.223
00:00:04.630	0.223
00:00:04.631	0.223
00:00:04.633	0.215
00:00:04.634	0.215
00:00:04.636	0.223
00:00:04.637	0.223
00:00:04.638	0.215
00:00:04.640	0.215
00:00:04.641	0.223
00:00:04.643	0.223
00:00:04.644	0.223
00:00:04.645	0.223
00:00:04.647	0.231
00:00:04.648	0.238
00:00:04.650	0.238
00:00:04.651	0.238
00:00:04.652	0.231
00:00:04.654	0.223
00:00:04.655	0.231
00:00:04.656	0.231
00:00:04.658	0.223
00:00:04.659	0.231
00:00:04.661	0.215
00:00:04.662	0.208
00:00:04.663	0.208
00:00:04.665	0.208
00:00:04.666	0.215
00:00:04.668	0.215
00:00:04.669	0.223
00:00:04.670	0.231
00:00:04.672	0.231
00:00:04.673	0.254
00:00:04.675	0.262
00:00:04.676	0.262
00:00:04.677	0.269
00:00:04.679	0.269
00:00:04.680	0.269
00:00:04.681	0.269
00:00:04.683	0.269
00:00:04.684	0.269
00:00:04.686	0.269
00:00:04.687	0.269
00:00:04.688	0.269
00:00:04.690	0.269
00:00:04.691	0.269
00:00:04.693	0.254
00:00:04.694	0.246
00:00:04.695	0.246
00:00:04.697	0.262
00:00:04.698	0.262
00:00:04.700	0.269
00:00:04.701	0.277
00:00:04.702	0.285
00:00:04.704	0.285
00:00:04.705	0.285
00:00:04.706	0.292
00:00:04.708	0.292
00:00:04.709	0.292
00:00:04.711	0.292
00:00:04.712	0.315
00:00:04.713	0.308
00:00:04.715	0.308
00:00:04.716	0.315
00:00:04.718	0.315
00:00:04.719	0.315
00:00:04.720	0.323
00:00:04.722	0.331
00:00:04.723	0.323
00:00:04.725	0.308
00:00:04.726	0.308
00:00:04.727	0.308
00:00:04.729	0.315
00:00:04.730	0.300
00:00:04.731	0.308
00:00:04.733	0.300
00:00:04.734	0.300
00:00:04.736	0.315
00:00:04.737	0.315
00:00:04.738	0.323
00:00:04.740	0.315
00:00:04.741	0.308
00:00:04.743	0.315
00:00:04.744	0.315
00:00:04.745	0.323
00:00:04.747	0.331
00:00:04.748	0.323
00:00:04.750	0.323
00:00:04.751	0.323
00:00:04.752	0.315
00:00:04.754	0.308
00:00:04.755	0.300
00:00:04.756	0.300
00:00:04.758	0.300
00:00:04.759	0.300
00:00:04.761	0.300
00:00:04.762	0.292
00:00:04.763	0.292
00:00:04.765	0.285
00:00:04.766	0.277
00:00:04.768	0.285
00:00:04.769	0.277
00:00:04.770	0.277
00:00:04.772	0.277
00:00:04.773	0.269
00:00:04.775	0.262
00:00:04.776	0.262
00:00:04.777	0.254
00:00:04.779	0.262
00:00:04.780	0.254
00:00:04.781	0.254
00:00:04.783	0.246
00:00:04.784	0.238
00:00:04.786	0.231
00:00:04.787	0.231
00:00:04.788	0.231
00:00:04.790	0.215
00:00:04.791	0.223
00:00:04.793	0.223
00:00:04.794	0.215
00:00:04.795	0.215
00:00:04.797	0.215
00:00:04.798	0.208
00:00:04.800	0.200
00:00:04.801	0.215
00:00:04.802	0.200
00:00:04.804	0.200
00:00:04.805	0.200
00:00:04.806	0.208
00:00:04.808	0.192
00:00:04.809	0.200
00:00:04.811	0.200
00:00:04.812	0.185
00:00:04.813	0.192
00:00:04.815	0.192
00:00:04.816	0.192
00:00:04.818	0.200
00:00:04.819	0.200
00:00:04.820	0.200
00:00:04.822	0.208
00:00:04.823	0.215
00:00:04.825	0.215
00:00:04.826	0.215
00:00:04.827	0.215
00:00:04.829	0.223
00:00:04.830	0.223
00:00:04.831	0.231
00:00:04.833	0.231
00:00:04.834	0.223
00:00:04.836	0.238
00:00:04.837	0.231
00:00:04.838	0.231
00:00:04.840	0.238
00:00:04.841	0.246
00:00:04.843	0.246
00:00:04.844	0.246
00:00:04.845	0.254
00:00:04.847	0.269
00:00:04.848	0.277
00:00:04.850	0.277
00:00:04.851	0.285
00:00:04.852	0.300
00:00:04.854	0.315
00:00:04.855	0.331
00:00:04.856	0.346
00:00:04.858	0.354
00:00:04.859	0.385
00:00:04.861	0.400
00:00:04.862	0.400
00:00:04.863	0.438
00:00:04.865	0.454
00:00:04.866	0.469
00:00:04.868	0.500
00:00:04.869	0.531
00:00:04.870	0.538
00:00:04.872	0.562
00:00:04.873	0.585
00:00:04.875	0.577
00:00:04.876	0.562
00:00:04.877	0.562
00:00:04.879	0.562
00:00:04.880	0.562
00:00:04.881	0.554
00:00:04.883	0.554
00:00:04.884	0.531
00:00:04.886	0.492
00:00:04.887	0.469
00:00:04.888	0.462
00:00:04.890	0.446
00:00:04.891	0.408
00:00:04.893	0.392
00:00:04.894	0.385
00:00:04.895	0.377
00:00:04.897	0.369
00:00:04.898	0.369
00:00:04.900	0.354
00:00:04.901	0.346
00:00:04.902	0.346
00:00:04.904	0.346
00:00:04.905	0.346
00:00:04.906	0.331
00:00:04.908	0.338
00:00:04.909	0.331
00:00:04.911	0.331
00:00:04.912	0.315
00:00:04.913	0.315
00:00:04.915	0.323
00:00:04.916	0.323
00:00:04.918	0.315
00:00:04.919	0.308
00:00:04.920	0.308
00:00:04.922	0.308
00:00:04.923	0.300
00:00:04.925	0.292
00:00:04.926	0.277
00:00:04.927	0.277
00:00:04.929	0.269
00:00:04.930	0.262
00:00:04.931	0.254
00:00:04.933	0.238
00:00:04.934	0.246
00:00:04.936	0.231
00:00:04.937	0.215
00:00:04.938	0.223
00:00:04.940	0.231
00:00:04.941	0.223
00:00:04.943	0.215
00:00:04.944	0.215
00:00:04.945	0.215
00:00:04.947	0.223
00:00:04.948	0.215
00:00:04.950	0.215
00:00:04.951	0.215
00:00:04.952	0.215
00:00:04.954	0.208
00:00:04.955	0.215
00:00:04.956	0.223
00:00:04.958	0.208
00:00:04.959	0.208
00:00:04.961	0.223
00:00:04.962	0.231
00:00:04.963	0.223
00:00:04.965	0.238
00:00:04.966	0.238
00:00:04.968	0.231
00:00:04.969	0.231
00:00:04.970	0.238
00:00:04.972	0.231
00:00:04.973	0.238
00:00:04.975	0.231
00:00:04.976	0.231
00:00:04.977	0.231
00:00:04.979	0.238
00:00:04.980	0.231
00:00:04.981	0.238
00:00:04.983	0.223
00:00:04.984	0.231
00:00:04.986	0.223
00:00:04.987	0.223
00:00:04.988	0.223
00:00:04.990	0.223
00:00:04.991	0.231
00:00:04.993	0.223
00:00:04.994	0.208
00:00:04.995	0.215
00:00:04.997	0.231
00:00:04.998	0.215
00:00:05.000	0.215
00:00:05.001	0.238
00:00:05.002	0.246
00:00:05.004	0.231
00:00:05.005	0.238
00:00:05.006	0.246
00:00:05.008	0.231
00:00:05.009	0.238
00:00:05.011	0.238
00:00:05.012	0.223
00:00:05.013	0.231
00:00:05.015	0.238
00:00:05.016	0.223
00:00:05.018	0.223
00:00:05.019	0.223
00:00:05.020	0.215
00:00:05.022	0.200
00:00:05.023	0.200
00:00:05.025	0.208
00:00:05.026	0.200
00:00:05.027	0.200
00:00:05.029	0.192
00:00:05.030	0.200
00:00:05.031	0.200
00:00:05.033	0.192
00:00:05.034	0.208
00:00:05.036	0.200
00:00:05.037	0.192
00:00:05.038	0.208
00:00:05.040	0.200
00:00:05.041	0.192
00:00:05.043	0.208
00:00:05.044	0.192
00:00:05.045	0.185
00:00:05.047	0.177
00:00:05.048	0.192
00:00:05.050	0.185
00:00:05.051	0.177
00:00:05.052	0.185
00:00:05.054	0.177
00:00:05.055	0.177
00:00:05.056	0.177
00:00:05.058	0.169
00:00:05.059	0.154
00:00:05.061	0.162
00:00:05.062	0.162
00:00:05.063	0.169
00:00:05.065	0.169
00:00:05.066	0.177
00:00:05.068	0.162
00:00:05.069	0.154
00:00:05.070	0.162
00:00:05.072	0.162
00:00:05.073	0.169
00:00:05.075	0.177
00:00:05.076	0.169
00:00:05.077	0.162
00:00:05.079	0.162
00:00:05.080	0.169
00:00:05.081	0.169
00:00:05.083	0.162
00:00:05.084	0.169
00:00:05.086	0.162
00:00:05.087	0.154
00:00:05.088	0.162
00:00:05.090	0.162
00:00:05.091	0.162
00:00:05.093	0.162
00:00:05.094	0.162
00:00:05.095	0.162
00:00:05.097	0.162
00:00:05.098	0.162
00:00:05.100	0.169
00:00:05.101	0.162
00:00:05.102	0.154
00:00:05.104	0.162
00:00:05.105	0.162
00:00:05.106	0.154
00:00:05.108	0.154
00:00:05.109	0.154
00:00:05.111	0.146
00:00:05.112	0.146
00:00:05.113	0.154
00:00:05.115	0.146
00:00:05.116	0.131
00:00:05.118	0.138
00:00:05.119	0.138
00:00:05.120	0.115
00:00:05.122	0.123
00:00:05.123	0.138
00:00:05.125	0.123
00:00:05.126	0.115
00:00:05.127	0.123
00:00:05.129	0.115
00:00:05.130	0.108
00:00:05.131	0.115
00:00:05.133	0.115
00:00:05.134	0.115
00:00:05.136	0.123
00:00:05.137	0.123
00:00:05.138	0.108
00:00:05.140	0.092
00:00:05.141	0.100
00:00:05.143	0.100
00:00:05.144	0.100
00:00:05.145	0.108
00:00:05.147	0.108
00:00:05.148	0.100
00:00:05.150	0.108
00:00:05.151	0.100
00:00:05.152	0.092
00:00:05.154	0.108
00:00:05.155	0.123
00:00:05.156	0.108
00:00:05.158	0.108
00:00:05.159	0.115
00:00:05.161	0.115
00:00:05.162	0.108
00:00:05.163	0.115
00:00:05.165	0.123
00:00:05.166	0.115
00:00:05.168	0.123
00:00:05.169	0.123
00:00:05.170	0.115
00:00:05.172	0.123
00:00:05.173	0.123
00:00:05.175	0.108
00:00:05.176	0.108
00:00:05.177	0.115
00:00:05.179	0.123
00:00:05.180	0.115
00:00:05.181	0.138
00:00:05.183	0.146
00:00:05.184	0.146
00:00:05.186	0.146
00:00:05.187	0.146
00:00:05.188	0.154
00:00:05.190	0.162
00:00:05.191	0.146
00:00:05.193	0.154
00:00:05.194	0.169
00:00:05.195	0.169
00:00:05.197	0.162
00:00:05.198	0.177
00:00:05.200	0.177
00:00:05.201	0.177
00:00:05.202	0.177
00:00:05.204	0.177
00:00:05.205	0.177
00:00:05.206	0.177
00:00:05.208	0.192
00:00:05.209	0.185
00:00:05.211	0.192
00:00:05.212	0.200
00:00:05.213	0.200
00:00:05.215	0.200
00:00:05.216	0.200
00:00:05.218	0.200
00:00:05.219	0.200
00:00:05.220	0.200
00:00:05.222	0.208
00:00:05.223	0.208
00:00:05.225	0.200
00:00:05.226	0.200
00:00:05.227	0.200
00:00:05.229	0.208
00:00:05.230	0.215
00:00:05.231	0.215
00:00:05.233	0.231
00:00:05.234	0.238
00:00:05.236	0.238
00:00:05.237	0.238
00:00:05.238	0.246
00:00:05.240	0.246
00:00:05.241	0.238
00:00:05.243	0.246
00:00:05.244	0.238
00:00:05.245	0.231
00:00:05.247	0.223
00:00:05.248	0.231
00:00:05.250	0.215
00:00:05.251	0.215
00:00:05.252	0.215
00:00:05.254	0.215
00:00:05.255	0.208
00:00:05.256	0.208
00:00:05.258	0.208
00:00:05.259	0.208
00:00:05.261	0.192
00:00:05.262	0.200
00:00:05.263	0.208
00:00:05.265	0.215
00:00:05.266	0.215
00:00:05.268	0.223
00:00:05.269	0.231
00:00:05.270	0.231
00:00:05.272	0.246
00:00:05.273	0.246
00:00:05.275	0.231
00:00:05.276	0.223
00:00:05.277	0.223
00:00:05.279	0.223
00:00:05.280	0.215
00:00:05.281	0.208
00:00:05.283	0.208
00:00:05.284	0.208
00:00:05.286	0.200
00:00:05.287	0.208
00:00:05.288	0.208
00:00:05.290	0.200
00:00:05.291	0.200
00:00:05.293	0.208
00:00:05.294	0.208
00:00:05.295	0.208
00:00:05.297	0.215
00:00:05.298	0.215
00:00:05.300	0.215
00:00:05.301	0.223
00:00:05.302	0.215
00:00:05.304	0.215
00:00:05.305	0.215
00:00:05.306	0.215
00:00:05.308	0.223
00:00:05.309	0.231
00:00:05.311	0.215
00:00:05.312	0.215
00:00:05.313	0.215
00:00:05.315	0.223
00:00:05.316	0.223
00:00:05.318	0.231
00:00:05.319	0.223
00:00:05.320	0.223
00:00:05.322	0.238
00:00:05.323	0.238
00:00:05.325	0.238
00:00:05.326	0.238
00:00:05.327	0.238
00:00:05.329	0.246
00:00:05.330	0.238
00:00:05.331	0.231
00:00:05.333	0.231
00:00:05.334	0.238
00:00:05.336	0.231
00:00:05.337	0.215
00:00:05.338	0.215
00:00:05.340	0.215
00:00:05.341	0.223
00:00:05.343	0.223
00:00:05.344	0.223
00:00:05.345	0.215
00:00:05.347	0.215
00:00:05.348	0.208
00:00:05.350	0.215
00:00:05.351	0.223
00:00:05.352	0.223
00:00:05.354	0.215
00:00:05.355	0.231
00:00:05.356	0.231
00:00:05.358	0.223
00:00:05.359	0.215
00:00:05.361	0.215
00:00:05.362	0.200
00:00:05.363	0.208
00:00:05.365	0.223
00:00:05.366	0.215
00:00:05.368	0.223
00:00:05.369	0.223
00:00:05.370	0.223
00:00:05.372	0.215
00:00:05.373	0.223
00:00:05.375	0.246
00:00:05.376	0.262
00:00:05.377	0.269
00:00:05.379	0.285
00:00:05.380	0.300
00:00:05.381	0.315
00:00:05.383	0.323
00:00:05.384	0.323
00:00:05.386	0.323
00:00:05.387	0.315
00:00:05.388	0.331
00:00:05.390	0.331
00:00:05.391	0.346
00:00:05.393	0.338
00:00:05.394	0.308
00:00:05.395	0.285
00:00:05.397	0.285
00:00:05.398	0.269
00:00:05.400	0.231
00:00:05.401	0.215
00:00:05.402	0.200
00:00:05.404	0.154
00:00:05.405	0.115
00:00:05.406	0.069
00:00:05.408	0.038
00:00:05.409	0.008
00:00:05.411	-0.046
00:00:05.412	-0.100
00:00:05.413	-0.138
00:00:05.415	-0.200
00:00:05.416	-0.269
00:00:05.418	-0.315
00:00:05.419	-0.385
00:00:05.420	-0.462
00:00:05.422	-0.492
00:00:05.423	-0.508
00:00:05.425	-0.492
00:00:05.426	-0.469
00:00:05.427	-0.462
00:00:05.429	-0.462
00:00:05.430	-0.446
00:00:05.431	-0.431
00:00:05.433	-0.415
00:00:05.434	-0.377
00:00:05.436	-0.354
00:00:05.437	-0.331
00:00:05.438	-0.308
00:00:05.440	-0.285
00:00:05.441	-0.269
00:00:05.443	-0.231
00:00:05.444	-0.169
00:00:05.445	-0.131
00:00:05.447	-0.092
00:00:05.448	-0.046
00:00:05.450	0.008
00:00:05.451	0.046
00:00:05.452	0.077
00:00:05.454	0.100
00:00:05.455	0.108
00:00:05.456	0.108
00:00:05.458	0.138
00:00:05.459	0.138
00:00:05.461	0.131
00:00:05.462	0.162
00:00:05.463	0.177
00:00:05.465	0.162
00:00:05.466	0.185
00:00:05.468	0.192
00:00:05.469	0.177
00:00:05.470	0.192
00:00:05.472	0.215
00:00:05.473	0.215
00:00:05.475	0.231
00:00:05.476	0.238
00:00:05.477	0.215
00:00:05.479	0.215
00:00:05.480	0.231
00:00:05.481	0.223
00:00:05.483	0.208
00:00:05.484	0.215
00:00:05.486	0.215
00:00:05.487	0.223
00:00:05.488	0.231
00:00:05.490	0.238
00:00:05.491	0.231
00:00:05.493	0.231
00:00:05.494	0.231
00:00:05.495	0.231
00:00:05.497	0.246
00:00:05.498	0.238
00:00:05.500	0.238
00:00:05.501	0.238
00:00:05.502	0.246
00:00:05.504	0.238
00:00:05.505	0.238
00:00:05.506	0.238
00:00:05.508	0.238
00:00:05.509	0.246
00:00:05.511	0.262
00:00:05.512	0.262
00:00:05.513	0.262
00:00:05.515	0.262
00:00:05.516	0.262
00:00:05.518	0.254
00:00:05.519	0.262
00:00:05.520	0.262
00:00:05.522	0.269
00:00:05.523	0.269
00:00:05.525	0.269
00:00:05.526	0.262
00:00:05.527	0.254
00:00:05.529	0.269
00:00:05.530	0.269
00:00:05.531	0.262
00:00:05.533	0.269
00:00:05.534	0.269
00:00:05.536	0.269
00:00:05.537	0.277
00:00:05.538	0.285
00:00:05.540	0.277
00:00:05.541	0.277
00:00:05.543	0.277
00:00:05.544	0.285
00:00:05.545	0.292
00:00:05.547	0.292
00:00:05.548	0.285
00:00:05.550	0.277
00:00:05.551	0.285
00:00:05.552	0.285
00:00:05.554	0.269
00:00:05.555	0.285
00:00:05.556	0.285
00:00:05.558	0.277
00:00:05.559	0.285
00:00:05.561	0.292
00:00:05.562	0.292
00:00:05.563	0.285
00:00:05.565	0.292
00:00:05.566	0.285
00:00:05.568	0.292
00:00:05.569	0.292
00:00:05.570	0.292
00:00:05.572	0.300
00:00:05.573	0.300
00:00:05.575	0.308
00:00:05.576	0.308
00:00:05.577	0.315
00:00:05.579	0.323
00:00:05.580	0.331
00:00:05.581	0.338
00:00:05.583	0.338
00:00:05.584	0.331
00:00:05.586	0.323
00:00:05.587	0.331
00:00:05.588	0.323
00:00:05.590	0.315
00:00:05.591	0.323
00:00:05.593	0.315
00:00:05.594	0.315
00:00:05.595	0.323
00:00:05.597	0.338
00:00:05.598	0.338
00:00:05.600	0.346
00:00:05.601	0.338
00:00:05.602	0.331
00:00:05.604	0.346
00:00:05.605	0.354
00:00:05.606	0.354
00:00:05.608	0.362
00:00:05.609	0.362
00:00:05.611	0.377
00:00:05.612	0.369
00:00:05.613	0.377
00:00:05.615	0.377
00:00:05.616	0.385
00:00:05.618	0.392
00:00:05.619	0.385
00:00:05.620	0.385
00:00:05.622	0.392
00:00:05.623	0.385
00:00:05.625	0.392
00:00:05.626	0.400
00:00:05.627	0.392
00:00:05.629	0.392
00:00:05.630	0.400
00:00:05.631	0.408
00:00:05.633	0.415
00:00:05.634	0.415
00:00:05.636	0.415
00:00:05.637	0.423
00:00:05.638	0.438
00:00:05.640	0.438
00:00:05.641	0.431
00:00:05.643	0.446
00:00:05.644	0.446
00:00:05.645	0.446
00:00:05.647	0.446
00:00:05.648	0.454
00:00:05.650	0.462
00:00:05.651	0.446
00:00:05.652	0.446
00:00:05.654	0.454
00:00:05.655	0.469
00:00:05.656	0.462
00:00:05.658	0.462
00:00:05.659	0.477
00:00:05.661	0.492
00:00:05.662	0.485
00:00:05.663	0.469
00:00:05.665	0.469
00:00:05.666	0.477
00:00:05.668	0.469
00:00:05.669	0.469
00:00:05.670	0.462
00:00:05.672	0.469
00:00:05.673	0.469
00:00:05.675	0.469
00:00:05.676	0.462
00:00:05.677	0.462
00:00:05.679	0.462
00:00:05.680	0.462
00:00:05.681	0.477
00:00:05.683	0.462
00:00:05.684	0.446
00:00:05.686	0.438
00:00:05.687	0.438
00:00:05.688	0.438
00:00:05.690	0.438
00:00:05.691	0.431
00:00:05.693	0.415
00:00:05.694	0.415
00:00:05.695	0.408
00:00:05.697	0.415
00:00:05.698	0.408
00:00:05.700	0.400
00:00:05.701	0.400
00:00:05.702	0.392
00:00:05.704	0.392
00:00:05.705	0.377
00:00:05.706	0.369
00:00:05.708	0.362
00:00:05.709	0.354
00:00:05.711	0.346
00:00:05.712	0.346
00:00:05.713	0.346
00:00:05.715	0.338
00:00:05.716	0.331
00:00:05.718	0.315
00:00:05.719	0.315
00:00:05.720	0.315
00:00:05.722	0.292
00:00:05.723	0.285
00:00:05.725	0.300
00:00:05.726	0.292
00:00:05.727	0.277
00:00:05.729	0.269
00:00:05.730	0.277
00:00:05.731	0.262
00:00:05.733	0.254
00:00:05.734	0.254
00:00:05.736	0.254
00:00:05.737	0.254
00:00:05.738	0.246
00:00:05.740	0.238
00:00:05.741	0.246
00:00:05.743	0.231
00:00:05.744	0.223
00:00:05.745	0.231
00:00:05.747	0.231
00:00:05.748	0.223
00:00:05.750	0.223
00:00:05.751	0.238
00:00:05.752	0.223
00:00:05.754	0.223
00:00:05.755	0.223
00:00:05.756	0.223
00:00:05.758	0.215
00:00:05.759	0.223
00:00:05.761	0.215
00:00:05.762	0.215
00:00:05.763	0.223
00:00:05.765	0.223
00:00:05.766	0.223
00:00:05.768	0.223
00:00:05.769	0.223
00:00:05.770	0.223
00:00:05.772	0.231
00:00:05.773	0.238
00:00:05.775	0.223
00:00:05.776	0.215
00:00:05.777	0.215
00:00:05.779	0.215
00:00:05.780	0.215
00:00:05.781	0.223
00:00:05.783	0.208
00:00:05.784	0.200
00:00:05.786	0.208
00:00:05.787	0.208
00:00:05.788	0.200
00:00:05.790	0.208
00:00:05.791	0.208
00:00:05.793	0.200
00:00:05.794	0.208
00:00:05.795	0.215
00:00:05.797	0.215
00:00:05.798	0.215
00:00:05.800	0.208
00:00:05.801	0.200
00:00:05.802	0.200
00:00:05.804	0.208
00:00:05.805	0.208
00:00:05.806	0.208
00:00:05.808	0.208
00:00:05.809	0.208
00:00:05.811	0.208
00:00:05.812	0.208
00:00:05.813	0.215
00:00:05.815	0.215
00:00:05.816	0.215
00:00:05.818	0.208
00:00:05.819	0.208
00:00:05.820	0.208
00:00:05.822	0.215
00:00:05.823	0.208
00:00:05.825	0.208
00:00:05.826	0.200
00:00:05.827	0.200
00:00:05.829	0.192
00:00:05.830	0.185
00:00:05.831	0.185
00:00:05.833	0.192
00:00:05.834	0.192
00:00:05.836	0.177
00:00:05.837	0.185
00:00:05.838	0.192
00:00:05.840	0.192
00:00:05.841	0.185
00:00:05.843	0.185
00:00:05.844	0.185
00:00:05.845	0.192
00:00:05.847	0.192
00:00:05.848	0.200
00:00:05.850	0.215
00:00:05.851	0.223
00:00:05.852	0.208
00:00:05.854	0.208
00:00:05.855	0.215
00:00:05.856	0.223
00:00:05.858	0.200
00:00:05.859	0.200
00:00:05.861	0.200
00:00:05.862	0.192
00:00:05.863	0.192
00:00:05.865	0.185
00:00:05.866	0.192
00:00:05.868	0.185
00:00:05.869	0.177
00:00:05.870	0.185
00:00:05.872	0.185
00:00:05.873	0.192
00:00:05.875	0.185
00:00:05.876	0.169
00:00:05.877	0.192
00:00:05.879	0.192
00:00:05.880	0.192
00:00:05.881	0.200
00:00:05.883	0.208
00:00:05.884	0.200
00:00:05.886	0.192
00:00:05.887	0.200
00:00:05.888	0.208
00:00:05.890	0.208
00:00:05.891	0.200
00:00:05.893	0.192
00:00:05.894	0.208
00:00:05.895	0.200
00:00:05.897	0.185
00:00:05.898	0.192
00:00:05.900	0.200
00:00:05.901	0.208
00:00:05.902	0.200
00:00:05.904	0.200
00:00:05.905	0.200
00:00:05.906	0.200
00:00:05.908	0.192
00:00:05.909	0.192
00:00:05.911	0.192
00:00:05.912	0.185
00:00:05.913	0.192
00:00:05.915	0.192
00:00:05.916	0.192
00:00:05.918	0.192
00:00:05.919	0.192
00:00:05.920	0.192
00:00:05.922	0.192
00:00:05.923	0.185
00:00:05.925	0.185
00:00:05.926	0.177
00:00:05.927	0.177
00:00:05.929	0.177
00:00:05.930	0.177
00:00:05.931	0.177
00:00:05.933	0.169
00:00:05.934	0.177
00:00:05.936	0.185
00:00:05.937	0.185
00:00:05.938	0.177
00:00:05.940	0.185
00:00:05.941	0.192
00:00:05.943	0.200
00:00:05.944	0.192
00:00:05.945	0.192
00:00:05.947	0.200
00:00:05.948	0.200
00:00:05.950	0.200
00:00:05.951	0.200
00:00:05.952	0.200
00:00:05.954	0.200
00:00:05.955	0.200
00:00:05.956	0.208
00:00:05.958	0.208
00:00:05.959	0.208
00:00:05.961	0.208
00:00:05.962	0.208
00:00:05.963	0.215
00:00:05.965	0.223
00:00:05.966	0.223
00:00:05.968	0.215
00:00:05.969	0.215
00:00:05.970	0.223
00:00:05.972	0.215
00:00:05.973	0.208
00:00:05.975	0.215
00:00:05.976	0.223
00:00:05.977	0.185
00:00:05.979	0.192
00:00:05.980	0.208
00:00:05.981	0.215
00:00:05.983	0.215
00:00:05.984	0.223
00:00:05.986	0.223
00:00:05.987	0.208
00:00:05.988	0.208
00:00:05.990	0.215
00:00:05.991	0.208
00:00:05.993	0.215
00:00:05.994	0.223
00:00:05.995	0.215
00:00:05.997	0.215
00:00:05.998	0.215
00:00:06.000	0.223
00:00:06.001	0.215
00:00:06.002	0.208
00:00:06.004	0.223
00:00:06.005	0.215
00:00:06.006	0.215
00:00:06.008	0.223
00:00:06.009	0.223
00:00:06.011	0.208
00:00:06.012	0.215
00:00:06.013	0.215
00:00:06.015	0.208
00:00:06.016	0.215
00:00:06.018	0.215
00:00:06.019	0.200
00:00:06.020	0.192
00:00:06.022	0.200
00:00:06.023	0.200
00:00:06.025	0.192
00:00:06.026	0.208
00:00:06.027	0.215
00:00:06.029	0.215
00:00:06.030	0.208
00:00:06.031	0.223
00:00:06.033	0.215
00:00:06.034	0.208
00:00:06.036	0.215
00:00:06.037	0.215
00:00:06.038	0.208
00:00:06.040	0.223
00:00:06.041	0.215
00:00:06.043	0.208
00:00:06.044	0.208
00:00:06.045	0.215
00:00:06.047	0.208
00:00:06.048	0.215
00:00:06.050	0.223
00:00:06.051	0.215
00:00:06.052	0.208
00:00:06.054	0.208
00:00:06.055	0.215
00:00:06.056	0.223
00:00:06.058	0.208
00:00:06.059	0.208
00:00:06.061	0.215
00:00:06.062	0.215
00:00:06.063	0.215
00:00:06.065	0.215
00:00:06.066	0.215
00:00:06.068	0.215
00:00:06.069	0.208
00:00:06.070	0.208
00:00:06.072	0.215
00:00:06.073	0.208
00:00:06.075	0.208
00:00:06.076	0.208
00:00:06.077	0.200
00:00:06.079	0.200
00:00:06.080	0.208
00:00:06.081	0.208
00:00:06.083	0.215
00:00:06.084	0.215
00:00:06.086	0.200
00:00:06.087	0.200
00:00:06.088	0.215
00:00:06.090	0.208
00:00:06.091	0.200
00:00:06.093	0.208
00:00:06.094	0.208
00:00:06.095	0.208
00:00:06.097	0.208
00:00:06.098	0.208
00:00:06.100	0.192
00:00:06.101	0.208
00:00:06.102	0.208
00:00:06.104	0.208
00:00:06.105	0.208
00:00:06.106	0.215
00:00:06.108	0.208
00:00:06.109	0.208
00:00:06.111	0.215
00:00:06.112	0.215
00:00:06.113	0.215
00:00:06.115	0.200
00:00:06.116	0.215
00:00:06.118	0.215
00:00:06.119	0.215
00:00:06.120	0.215
00:00:06.122	0.223
00:00:06.123	0.215
00:00:06.125	0.208
00:00:06.126	0.208
00:00:06.127	0.208
00:00:06.129	0.200
00:00:06.130	0.208
00:00:06.131	0.200
00:00:06.133	0.200
00:00:06.134	0.200
00:00:06.136	0.215
00:00:06.137	0.215
00:00:06.138	0.215
00:00:06.140	0.215
00:00:06.141	0.223
00:00:06.143	0.215
00:00:06.144	0.215
00:00:06.145	0.223
00:00:06.147	0.223
00:00:06.148	0.223
00:00:06.150	0.208
00:00:06.151	0.215
00:00:06.152	0.215
00:00:06.154	0.208
00:00:06.155	0.208
00:00:06.156	0.200
00:00:06.158	0.200
00:00:06.159	0.192
00:00:06.161	0.192
00:00:06.162	0.208
00:00:06.163	0.215
00:00:06.165	0.223
00:00:06.166	0.231
00:00:06.168	0.238
00:00:06.169	0.238
00:00:06.170	0.246
00:00:06.172	0.262
00:00:06.173	0.254
00:00:06.175	0.262
00:00:06.176	0.254
00:00:06.177	0.246
00:00:06.179	0.254
00:00:06.180	0.269
00:00:06.181	0.277
00:00:06.183	0.262
00:00:06.184	0.254
00:00:06.186	0.254
00:00:06.187	0.246
00:00:06.188	0.246
00:00:06.190	0.254
00:00:06.191	0.254
00:00:06.193	0.246
00:00:06.194	0.254
00:00:06.195	0.277
00:00:06.197	0.292
00:00:06.198	0.277
00:00:06.200	0.277
00:00:06.201	0.277
00:00:06.202	0.285
00:00:06.204	0.292
00:00:06.205	0.300
00:00:06.206	0.308
00:00:06.208	0.300
00:00:06.209	0.300
00:00:06.211	0.300
00:00:06.212	0.308
00:00:06.213	0.315
00:00:06.215	0.323
00:00:06.216	0.315
00:00:06.218	0.315
00:00:06.219	0.315
00:00:06.220	0.323
00:00:06.222	0.323
00:00:06.223	0.323
00:00:06.225	0.315
00:00:06.226	0.308
00:00:06.227	0.300
00:00:06.229	0.308
00:00:06.230	0.308
00:00:06.231	0.308
00:00:06.233	0.300
00:00:06.234	0.308
00:00:06.236	0.300
00:00:06.237	0.308
00:00:06.238	0.323
00:00:06.240	0.315
00:00:06.241	0.300
00:00:06.243	0.315
00:00:06.244	0.323
00:00:06.245	0.308
00:00:06.247	0.315
00:00:06.248	0.308
00:00:06.250	0.292
00:00:06.251	0.292
00:00:06.252	0.300
00:00:06.254	0.300
00:00:06.255	0.308
00:00:06.256	0.292
00:00:06.258	0.277
00:00:06.259	0.277
00:00:06.261	0.292
00:00:06.262	0.285
00:00:06.263	0.285
00:00:06.265	0.277
00:00:06.266	0.269
00:00:06.268	0.262
00:00:06.269	0.262
00:00:06.270	0.262
00:00:06.272	0.262
00:00:06.273	0.262
00:00:06.275	0.262
00:00:06.276	0.246
00:00:06.277	0.246
00:00:06.279	0.246
00:00:06.280	0.231
00:00:06.281	0.231
00:00:06.283	0.231
00:00:06.284	0.231
00:00:06.286	0.231
00:00:06.287	0.238
00:00:06.288	0.238
00:00:06.290	0.231
00:00:06.291	0.223
00:00:06.293	0.215
00:00:06.294	0.200
00:00:06.295	0.215
00:00:06.297	0.215
00:00:06.298	0.215
00:00:06.300	0.200
00:00:06.301	0.200
00:00:06.302	0.192
00:00:06.304	0.208
00:00:06.305	0.200
00:00:06.306	0.208
00:00:06.308	0.200
00:00:06.309	0.208
00:00:06.311	0.208
00:00:06.312	0.200
00:00:06.313	0.208
00:00:06.315	0.208
00:00:06.316	0.223
00:00:06.318	0.223
00:00:06.319	0.231
00:00:06.320	0.238
00:00:06.322	0.238
00:00:06.323	0.238
00:00:06.325	0.254
00:00:06.326	0.246
00:00:06.327	0.246
00:00:06.329	0.254
00:00:06.330	0.262
00:00:06.331	0.262
00:00:06.333	0.246
00:00:06.334	0.254
00:00:06.336	0.262
00:00:06.337	0.262
00:00:06.338	0.254
00:00:06.340	0.254
00:00:06.341	0.262
00:00:06.343	0.269
00:00:06.344	0.269
00:00:06.345	0.277
00:00:06.347	0.285
00:00:06.348	0.300
00:00:06.350	0.315
00:00:06.351	0.331
00:00:06.352	0.346
00:00:06.354	0.362
00:00:06.355	0.369
00:00:06.356	0.392
00:00:06.358	0.415
00:00:06.359	0.431
00:00:06.361	0.438
00:00:06.362	0.462
00:00:06.363	0.492
00:00:06.365	0.508
00:00:06.366	0.531
00:00:06.368	0.554
00:00:06.369	0.562
00:00:06.370	0.569
00:00:06.372	0.569
00:00:06.373	0.554
00:00:06.375	0.546
00:00:06.376	0.554
00:00:06.377	0.554
00:00:06.379	0.531
00:00:06.380	0.531
00:00:06.381	0.515
00:00:06.383	0.492
00:00:06.384	0.462
00:00:06.386	0.446
00:00:06.387	0.423
00:00:06.388	0.400
00:00:06.390	0.385
00:00:06.391	0.392
00:00:06.393	0.369
00:00:06.394	0.362
00:00:06.395	0.369
00:00:06.397	0.354
00:00:06.398	0.346
00:00:06.400	0.354
00:00:06.401	0.338
00:00:06.402	0.323
00:00:06.404	0.338
00:00:06.405	0.362
00:00:06.406	0.346
00:00:06.408	0.354
00:00:06.409	0.346
00:00:06.411	0.338
00:00:06.412	0.338
00:00:06.413	0.338
00:00:06.415	0.323
00:00:06.416	0.315
00:00:06.418	0.308
00:00:06.419	0.308
00:00:06.420	0.308
00:00:06.422	0.285
00:00:06.423	0.262
00:00:06.425	0.262
00:00:06.426	0.269
00:00:06.427	0.246
00:00:06.429	0.238
00:00:06.430	0.246
00:00:06.431	0.238
00:00:06.433	0.231
00:00:06.434	0.231
00:00:06.436	0.223
00:00:06.437	0.223
00:00:06.438	0.231
00:00:06.440	0.223
00:00:06.441	0.223
00:00:06.443	0.231
00:00:06.444	0.231
00:00:06.445	0.231
00:00:06.447	0.223
00:00:06.448	0.208
00:00:06.450	0.215
00:00:06.451	0.208
00:00:06.452	0.215
00:00:06.454	0.208
00:00:06.455	0.215
00:00:06.456	0.223
00:00:06.458	0.215
00:00:06.459	0.215
00:00:06.461	0.208
00:00:06.462	0.223
00:00:06.463	0.215
00:00:06.465	0.215
00:00:06.466	0.215
00:00:06.468	0.208
00:00:06.469	0.200
00:00:06.470	0.215
00:00:06.472	0.215
00:00:06.473	0.215
00:00:06.475	0.215
00:00:06.476	0.215
00:00:06.477	0.215
00:00:06.479	0.223
00:00:06.480	0.223
00:00:06.481	0.215
00:00:06.483	0.215
00:00:06.484	0.223
00:00:06.486	0.223
00:00:06.487	0.215
00:00:06.488	0.215
00:00:06.490	0.215
00:00:06.491	0.215
00:00:06.493	0.215
00:00:06.494	0.215
00:00:06.495	0.223
00:00:06.497	0.231
00:00:06.498	0.231
00:00:06.500	0.238
00:00:06.501	0.231
00:00:06.502	0.231
00:00:06.504	0.231
00:00:06.505	0.231
00:00:06.506	0.231
00:00:06.508	0.231
00:00:06.509	0.231
00:00:06.511	0.231
00:00:06.512	0.238
00:00:06.513	0.223
00:00:06.515	0.215
00:00:06.516	0.223
00:00:06.518	0.215
00:00:06.519	0.200
00:00:06.520	0.200
00:00:06.522	0.215
00:00:06.523	0.208
00:00:06.525	0.215
00:00:06.526	0.200
00:00:06.527	0.200
00:00:06.529	0.208
00:00:06.530	0.200
00:00:06.531	0.200
00:00:06.533	0.208
00:00:06.534	0.200
00:00:06.536	0.200
00:00:06.537	0.208
00:00:06.538	0.200
00:00:06.540	0.177
00:00:06.541	0.192
00:00:06.543	0.192
00:00:06.544	0.185
00:00:06.545	0.177
00:00:06.547	0.185
00:00:06.548	0.169
00:00:06.550	0.169
00:00:06.551	0.177
00:00:06.552	0.162
00:00:06.554	0.169
00:00:06.555	0.177
00:00:06.556	0.169
00:00:06.558	0.162
00:00:06.559	0.162
00:00:06.561	0.162
00:00:06.562	0.169
00:00:06.563	0.177
00:00:06.565	0.169
00:00:06.566	0.177
00:00:06.568	0.177
00:00:06.569	0.177
00:00:06.570	0.169
00:00:06.572	0.154
00:00:06.573	0.169
00:00:06.575	0.162
00:00:06.576	0.162
00:00:06.577	0.162
00:00:06.579	0.169
00:00:06.580	0.169
00:00:06.581	0.169
00:00:06.583	0.177
00:00:06.584	0.169
00:00:06.586	0.162
00:00:06.587	0.169
00:00:06.588	0.177
00:00:06.590	0.177
00:00:06.591	0.169
00:00:06.593	0.177
00:00:06.594	0.177
00:00:06.595	0.177
00:00:06.597	0.177
00:00:06.598	0.185
00:00:06.600	0.177
00:00:06.601	0.162
00:00:06.602	0.162
00:00:06.604	0.162
00:00:06.605	0.146
00:00:06.606	0.138
00:00:06.608	0.138
00:00:06.609	0.138
00:00:06.611	0.138
00:00:06.612	0.146
00:00:06.613	0.146
00:00:06.615	0.138
00:00:06.616	0.131
00:00:06.618	0.131
00:00:06.619	0.131
00:00:06.620	0.131
00:00:06.622	0.123
00:00:06.623	0.115
00:00:06.625	0.123
00:00:06.626	0.123
00:00:06.627	0.100
00:00:06.629	0.100
00:00:06.630	0.100
00:00:06.631	0.085
00:00:06.633	0.085
00:00:06.634	0.100
00:00:06.636	0.092
00:00:06.637	0.085
00:00:06.638	0.085
00:00:06.640	0.077
00:00:06.641	0.069
00:00:06.643	0.092
00:00:06.644	0.100
00:00:06.645	0.092
00:00:06.647	0.100
00:00:06.648	0.092
00:00:06.650	0.092
00:00:06.651	0.108
00:00:06.652	0.108
00:00:06.654	0.115
00:00:06.655	0.131
00:00:06.656	0.131
00:00:06.658	0.123
00:00:06.659	0.123
00:00:06.661	0.123
00:00:06.662	0.115
00:00:06.663	0.115
00:00:06.665	0.123
00:00:06.666	0.123
00:00:06.668	0.115
00:00:06.669	0.123
00:00:06.670	0.138
00:00:06.672	0.138
00:00:06.673	0.131
00:00:06.675	0.123
00:00:06.676	0.131
00:00:06.677	0.131
00:00:06.679	0.131
00:00:06.680	0.138
00:00:06.681	0.154
00:00:06.683	0.146
00:00:06.684	0.154
00:00:06.686	0.169
00:00:06.687	0.169
00:00:06.688	0.177
00:00:06.690	0.177
00:00:06.691	0.169
00:00:06.693	0.169
00:00:06.694	0.192
00:00:06.695	0.185
00:00:06.697	0.162
00:00:06.698	0.169
00:00:06.700	0.192
00:00:06.701	0.185
00:00:06.702	0.192
00:00:06.704	0.200
00:00:06.705	0.200
00:00:06.706	0.192
00:00:06.708	0.208
00:00:06.709	0.208
00:00:06.711	0.200
00:00:06.712	0.200
00:00:06.713	0.200
00:00:06.715	0.208
00:00:06.716	0.215
00:00:06.718	0.208
00:00:06.719	0.200
00:00:06.720	0.200
00:00:06.722	0.200
00:00:06.723	0.208
00:00:06.725	0.200
00:00:06.726	0.208
00:00:06.727	0.215
00:00:06.729	0.223
00:00:06.730	0.231
00:00:06.731	0.223
00:00:06.733	0.223
00:00:06.734	0.238
00:00:06.736	0.246
00:00:06.737	0.246
00:00:06.738	0.238
00:00:06.740	0.223
00:00:06.741	0.231
00:00:06.743	0.223
00:00:06.744	0.215
00:00:06.745	0.215
00:00:06.747	0.208
00:00:06.748	0.208
00:00:06.750	0.208
00:00:06.751	0.208
00:00:06.752	0.208
00:00:06.754	0.215
00:00:06.755	0.215
00:00:06.756	0.215
00:00:06.758	0.208
00:00:06.759	0.215
00:00:06.761	0.215
00:00:06.762	0.215
00:00:06.763	0.215
00:00:06.765	0.223
00:00:06.766	0.223
00:00:06.768	0.223
00:00:06.769	0.223
00:00:06.770	0.231
00:00:06.772	0.231
00:00:06.773	0.215
00:00:06.775	0.215
00:00:06.776	0.208
00:00:06.777	0.208
00:00:06.779	0.215
00:00:06.780	0.223
00:00:06.781	0.223
00:00:06.783	0.223
00:00:06.784	0.215
00:00:06.786	0.215
00:00:06.787	0.223
00:00:06.788	0.223
00:00:06.790	0.208
00:00:06.791	0.215
00:00:06.793	0.215
00:00:06.794	0.223
00:00:06.795	0.223
00:00:06.797	0.215
00:00:06.798	0.223
00:00:06.800	0.215
00:00:06.801	0.223
00:00:06.802	0.223
00:00:06.804	0.215
00:00:06.805	0.215
00:00:06.806	0.208
00:00:06.808	0.215
00:00:06.809	0.215
00:00:06.811	0.223
00:00:06.812	0.231
00:00:06.813	0.231
00:00:06.815	0.231
00:00:06.816	0.231
00:00:06.818	0.238
00:00:06.819	0.238
00:00:06.820	0.246
00:00:06.822	0.238
00:00:06.823	0.231
00:00:06.825	0.215
00:00:06.826	0.223
00:00:06.827	0.231
00:00:06.829	0.231
00:00:06.830	0.223
00:00:06.831	0.223
00:00:06.833	0.215
00:00:06.834	0.223
00:00:06.836	0.215
00:00:06.837	0.215
00:00:06.838	0.208
00:00:06.840	0.215
00:00:06.841	0.215
00:00:06.843	0.215
00:00:06.844	0.208
00:00:06.845	0.223
00:00:06.847	0.223
00:00:06.848	0.208
00:00:06.850	0.208
00:00:06.851	0.215
00:00:06.852	0.208
00:00:06.854	0.215
00:00:06.855	0.215
00:00:06.856	0.208
00:00:06.858	0.200
00:00:06.859	0.200
00:00:06.861	0.215
00:00:06.862	0.200
00:00:06.863	0.200
00:00:06.865	0.208
00:00:06.866	0.215
00:00:06.868	0.223
00:00:06.869	0.238
00:00:06.870	0.254
00:00:06.872	0.269
00:00:06.873	0.292
00:00:06.875	0.308
00:00:06.876	0.308
00:00:06.877	0.315
00:00:06.879	0.338
00:00:06.880	0.346
00:00:06.881	0.346
00:00:06.883	0.346
00:00:06.884	0.338
00:00:06.886	0.346
00:00:06.887	0.362
00:00:06.888	0.338
00:00:06.890	0.315
00:00:06.891	0.300
00:00:06.893	0.292
00:00:06.894	0.269
00:00:06.895	0.246
00:00:06.897	0.231
00:00:06.898	0.192
00:00:06.900	0.154
00:00:06.901	0.123
00:00:06.902	0.092
00:00:06.904	0.062
00:00:06.905	0.008
00:00:06.906	-0.038
00:00:06.908	-0.077
00:00:06.909	-0.138
00:00:06.911	-0.200
00:00:06.912	-0.254
00:00:06.913	-0.300
00:00:06.915	-0.369
00:00:06.916	-0.431
00:00:06.918	-0.500
00:00:06.919	-0.523
00:00:06.920	-0.508
00:00:06.922	-0.485
00:00:06.923	-0.477
00:00:06.925	-0.462
00:00:06.926	-0.454
00:00:06.927	-0.431
00:00:06.929	-0.415
00:00:06.930	-0.392
00:00:06.931	-0.362
00:00:06.933	-0.338
00:00:06.934	-0.323
00:00:06.936	-0.300
00:00:06.937	-0.262
00:00:06.938	-0.231
00:00:06.940	-0.208
00:00:06.941	-0.138
00:00:06.943	-0.092
00:00:06.944	-0.062
00:00:06.945	0.000
00:00:06.947	0.046
00:00:06.948	0.069
00:00:06.950	0.100
00:00:06.951	0.108
00:00:06.952	0.100
00:00:06.954	0.123
00:00:06.955	0.138
00:00:06.956	0.123
00:00:06.958	0.138
00:00:06.959	0.162
00:00:06.961	0.162
00:00:06.962	0.169
00:00:06.963	0.185
00:00:06.965	0.185
00:00:06.966	0.192
00:00:06.968	0.200
00:00:06.969	0.215
00:00:06.970	0.215
00:00:06.972	0.215
00:00:06.973	0.223
00:00:06.975	0.223
00:00:06.976	0.223
00:00:06.977	0.223
00:00:06.979	0.223
00:00:06.980	0.223
00:00:06.981	0.223
00:00:06.983	0.231
00:00:06.984	0.223
00:00:06.986	0.223
00:00:06.987	0.238
00:00:06.988	0.246
00:00:06.990	0.246
00:00:06.991	0.246
00:00:06.993	0.254
00:00:06.994	0.254
00:00:06.995	0.246
00:00:06.997	0.238
00:00:06.998	0.246
00:00:07.000	0.246
00:00:07.001	0.238
00:00:07.002	0.246
00:00:07.004	0.262
00:00:07.005	0.269
00:00:07.006	0.262
00:00:07.008	0.269
00:00:07.009	0.277
00:00:07.011	0.269
00:00:07.012	0.269
00:00:07.013	0.262
00:00:07.015	0.269
00:00:07.016	0.262
00:00:07.018	0.277
00:00:07.019	0.277
00:00:07.020	0.285
00:00:07.022	0.277
00:00:07.023	0.269
00:00:07.025	0.262
00:00:07.026	0.277
00:00:07.027	0.285
00:00:07.029	0.277
00:00:07.030	0.285
00:00:07.031	0.285
00:00:07.033	0.269
00:00:07.034	0.269
00:00:07.036	0.285
00:00:07.037	0.300
00:00:07.038	0.308
00:00:07.040	0.308
00:00:07.041	0.300
00:00:07.043	0.292
00:00:07.044	0.300
00:00:07.045	0.315
00:00:07.047	0.308
00:00:07.048	0.308
00:00:07.050	0.315
00:00:07.051	0.300
00:00:07.052	0.292
00:00:07.054	0.300
00:00:07.055	0.300
00:00:07.056	0.300
00:00:07.058	0.285
00:00:07.059	0.285
00:00:07.061	0.285
00:00:07.062	0.292
00:00:07.063	0.300
00:00:07.065	0.300
00:00:07.066	0.292
00:00:07.068	0.285
00:00:07.069	0.285
00:00:07.070	0.292
00:00:07.072	0.308
00:00:07.073	0.315
00:00:07.075	0.308
00:00:07.076	0.323
00:00:07.077	0.315
00:00:07.079	0.331
00:00:07.080	0.331
00:00:07.081	0.323
00:00:07.083	0.315
00:00:07.084	0.315
00:00:07.086	0.315
00:00:07.087	0.315
00:00:07.088	0.315
00:00:07.090	0.308
00:00:07.091	0.323
00:00:07.093	0.331
00:00:07.094	0.323
00:00:07.095	0.331
00:00:07.097	0.331
00:00:07.098	0.331
00:00:07.100	0.346
00:00:07.101	0.346
00:00:07.102	0.362
00:00:07.104	0.369
00:00:07.105	0.369
00:00:07.106	0.385
00:00:07.108	0.377
00:00:07.109	0.369
00:00:07.111	0.392
00:00:07.112	0.408
00:00:07.113	0.392
00:00:07.115	0.400
00:00:07.116	0.415
00:00:07.118	0.400
00:00:07.119	0.400
00:00:07.120	0.415
00:00:07.122	0.408
00:00:07.123	0.408
00:00:07.125	0.431
00:00:07.126	0.415
00:00:07.127	0.415
00:00:07.129	0.431
00:00:07.130	0.438
00:00:07.131	0.446
00:00:07.133	0.462
00:00:07.134	0.454
00:00:07.136	0.454
00:00:07.137	0.477
00:00:07.138	0.485
00:00:07.140	0.469
00:00:07.141	0.462
00:00:07.143	0.485
00:00:07.144	0.485
00:00:07.145	0.477
00:00:07.147	0.469
00:00:07.148	0.477
00:00:07.150	0.477
00:00:07.151	0.469
00:00:07.152	0.477
00:00:07.154	0.477
00:00:07.155	0.477
00:00:07.156	0.485
00:00:07.158	0.492
00:00:07.159	0.485
00:00:07.161	0.477
00:00:07.162	0.485
00:00:07.163	0.492
00:00:07.165	0.462
00:00:07.166	0.454
00:00:07.168	0.462
00:00:07.169	0.469
00:00:07.170	0.485
00:00:07.172	0.477
00:00:07.173	0.469
00:00:07.175	0.454
00:00:07.176	0.469
00:00:07.177	0.469
00:00:07.179	0.454
00:00:07.180	0.446
00:00:07.181	0.446
00:00:07.183	0.446
00:00:07.184	0.438
00:00:07.186	0.431
00:00:07.187	0.431
00:00:07.188	0.423
00:00:07.190	0.415
00:00:07.191	0.400
00:00:07.193	0.400
00:00:07.194	0.400
00:00:07.195	0.400
00:00:07.197	0.400
00:00:07.198	0.400
00:00:07.200	0.385
00:00:07.201	0.377
00:00:07.202	0.369
00:00:07.204	0.369
00:00:07.205	0.346
00:00:07.206	0.354
00:00:07.208	0.362
00:00:07.209	0.346
00:00:07.211	0.323
00:00:07.212	0.331
00:00:07.213	0.331
00:00:07.215	0.315
00:00:07.216	0.300
00:00:07.218	0.300
00:00:07.219	0.300
00:00:07.220	0.292
00:00:07.222	0.285
00:00:07.223	0.277
00:00:07.225	0.262
00:00:07.226	0.262
00:00:07.227	0.262
00:00:07.229	0.262
00:00:07.230	0.262
00:00:07.231	0.254
00:00:07.233	0.238
00:00:07.234	0.238
00:00:07.236	0.238
00:00:07.237	0.246
00:00:07.238	0.238
00:00:07.240	0.246
00:00:07.241	0.238
00:00:07.243	0.231
00:00:07.244	0.223
00:00:07.245	0.223
00:00:07.247	0.223
00:00:07.248	0.223
00:00:07.250	0.200
00:00:07.251	0.208
00:00:07.252	0.223
00:00:07.254	0.223
00:00:07.255	0.223
00:00:07.256	0.223
00:00:07.258	0.231
00:00:07.259	0.223
00:00:07.261	0.231
00:00:07.262	0.238
00:00:07.263	0.238
00:00:07.265	0.231
00:00:07.266	0.231
00:00:07.268	0.223
00:00:07.269	0.200
00:00:07.270	0.215
00:00:07.272	0.215
00:00:07.273	0.192
00:00:07.275	0.200
00:00:07.276	0.208
00:00:07.277	0.200
00:00:07.279	0.208
00:00:07.280	0.208
00:00:07.281	0.208
00:00:07.283	0.208
00:00:07.284	0.200
00:00:07.286	0.200
00:00:07.287	0.200
00:00:07.288	0.208
00:00:07.290	0.215
00:00:07.291	0.208
00:00:07.293	0.208
00:00:07.294	0.223
00:00:07.295	0.215
00:00:07.297	0.215
00:00:07.298	0.215
00:00:07.300	0.215
00:00:07.301	0.215
00:00:07.302	0.215
00:00:07.304	0.215
00:00:07.305	0.215
00:00:07.306	0.215
00:00:07.308	0.223
00:00:07.309	0.208
00:00:07.311	0.208
00:00:07.312	0.208
00:00:07.313	0.215
00:00:07.315	0.200
00:00:07.316	0.208
00:00:07.318	0.208
00:00:07.319	0.200
00:00:07.320	0.192
00:00:07.322	0.200
00:00:07.323	0.192
00:00:07.325	0.177
00:00:07.326	0.177
00:00:07.327	0.177
00:00:07.329	0.177
00:00:07.330	0.185
00:00:07.331	0.192
00:00:07.333	0.177
00:00:07.334	0.177
00:00:07.336	0.185
00:00:07.337	0.177
00:00:07.338	0.177
00:00:07.340	0.185
00:00:07.341	0.192
00:00:07.343	0.192
00:00:07.344	0.185
00:00:07.345	0.185
00:00:07.347	0.192
00:00:07.348	0.200
00:00:07.350	0.185
00:00:07.351	0.185
00:00:07.352	0.185
00:00:07.354	0.192
00:00:07.355	0.192
00:00:07.356	0.177
00:00:07.358	0.162
00:00:07.359	0.162
00:00:07.361	0.169
00:00:07.362	0.162
00:00:07.363	0.162
00:00:07.365	0.162
00:00:07.366	0.169
00:00:07.368	0.162
00:00:07.369	0.169
00:00:07.370	0.185
00:00:07.372	0.177
00:00:07.373	0.177
00:00:07.375	0.185
00:00:07.376	0.192
00:00:07.377	0.192
00:00:07.379	0.185
00:00:07.380	0.200
00:00:07.381	0.192
00:00:07.383	0.192
00:00:07.384	0.185
00:00:07.386	0.192
00:00:07.387	0.215
00:00:07.388	0.200
00:00:07.390	0.192
00:00:07.391	0.200
00:00:07.393	0.208
00:00:07.394	0.200
00:00:07.395	0.200
00:00:07.397	0.215
00:00:07.398	0.200
00:00:07.400	0.192
00:00:07.401	0.208
00:00:07.402	0.200
00:00:07.404	0.192
00:00:07.405	0.208
00:00:07.406	0.215
00:00:07.408	0.208
00:00:07.409	0.208
00:00:07.411	0.208
00:00:07.412	0.200
00:00:07.413	0.200
00:00:07.415	0.200
00:00:07.416	0.208
00:00:07.418	0.200
00:00:07.419	0.208
00:00:07.420	0.200
00:00:07.422	0.185
00:00:07.423	0.177
00:00:07.425	0.177
00:00:07.426	0.169
00:00:07.427	0.177
00:00:07.429	0.177
00:00:07.430	0.169
00:00:07.431	0.185
00:00:07.433	0.177
00:00:07.434	0.192
00:00:07.436	0.200
00:00:07.437	0.192
00:00:07.438	0.185
00:00:07.440	0.200
00:00:07.441	0.192
00:00:07.443	0.185
00:00:07.444	0.192
00:00:07.445	0.192
00:00:07.447	0.192
00:00:07.448	0.192
00:00:07.450	0.200
00:00:07.451	0.208
00:00:07.452	0.200
00:00:07.454	0.192
00:00:07.455	0.192
00:00:07.456	0.200
00:00:07.458	0.200
00:00:07.459	0.192
00:00:07.461	0.200
00:00:07.462	0.215
00:00:07.463	0.215
00:00:07.465	0.215
00:00:07.466	0.215
00:00:07.468	0.208
00:00:07.469	0.208
00:00:07.470	0.223
00:00:07.472	0.215
00:00:07.473	0.208
00:00:07.475	0.192
00:00:07.476	0.200
00:00:07.477	0.208
00:00:07.479	0.208
00:00:07.480	0.200
00:00:07.481	0.200
00:00:07.483	0.200
00:00:07.484	0.200
00:00:07.486	0.192
00:00:07.487	0.192
00:00:07.488	0.208
00:00:07.490	0.215
00:00:07.491	0.208
00:00:07.493	0.208
00:00:07.494	0.208
00:00:07.495	0.208
00:00:07.497	0.208
00:00:07.498	0.200
00:00:07.500	0.200
00:00:07.501	0.208
00:00:07.502	0.200
00:00:07.504	0.208
00:00:07.505	0.200
00:00:07.506	0.192
00:00:07.508	0.200
00:00:07.509	0.208
00:00:07.511	0.208
00:00:07.512	0.200
00:00:07.513	0.192
00:00:07.515	0.192
00:00:07.516	0.185
00:00:07.518	0.185
00:00:07.519	0.200
00:00:07.520	0.200
00:00:07.522	0.200
00:00:07.523	0.200
00:00:07.525	0.208
00:00:07.526	0.208
00:00:07.527	0.200
00:00:07.529	0.200
00:00:07.530	0.200
00:00:07.531	0.208
00:00:07.533	0.200
00:00:07.534	0.200
00:00:07.536	0.208
00:00:07.537	0.192
00:00:07.538	0.192
00:00:07.540	0.200
00:00:07.541	0.192
00:00:07.543	0.192
00:00:07.544	0.200
00:00:07.545	0.200
00:00:07.547	0.192
00:00:07.548	0.200
00:00:07.550	0.200
00:00:07.551	0.192
00:00:07.552	0.192
00:00:07.554	0.192
00:00:07.555	0.200
00:00:07.556	0.192
00:00:07.558	0.200
00:00:07.559	0.192
00:00:07.561	0.192
00:00:07.562	0.192
00:00:07.563	0.185
00:00:07.565	0.200
00:00:07.566	0.208
00:00:07.568	0.200
00:00:07.569	0.200
00:00:07.570	0.200
00:00:07.572	0.200
00:00:07.573	0.192
00:00:07.575	0.185
00:00:07.576	0.185
00:00:07.577	0.185
00:00:07.579	0.185
00:00:07.580	0.192
00:00:07.581	0.185
00:00:07.583	0.185
00:00:07.584	0.192
00:00:07.586	0.192
00:00:07.587	0.185
00:00:07.588	0.192
00:00:07.590	0.192
00:00:07.591	0.185
00:00:07.593	0.185
00:00:07.594	0.192
00:00:07.595	0.192
00:00:07.597	0.185
00:00:07.598	0.192
00:00:07.600	0.192
00:00:07.601	0.185
00:00:07.602	0.185
00:00:07.604	0.185
00:00:07.605	0.185
00:00:07.606	0.192
00:00:07.608	0.200
00:00:07.609	0.200
00:00:07.611	0.185
00:00:07.612	0.200
00:00:07.613	0.200
00:00:07.615	0.208
00:00:07.616	0.208
00:00:07.618	0.208
00:00:07.619	0.208
00:00:07.620	0.208
00:00:07.622	0.208
00:00:07.623	0.200
00:00:07.625	0.192
00:00:07.626	0.208
00:00:07.627	0.208
00:00:07.629	0.215
00:00:07.630	0.215
00:00:07.631	0.215
00:00:07.633	0.223
00:00:07.634	0.223
00:00:07.636	0.231
00:00:07.637	0.231
00:00:07.638	0.238
00:00:07.640	0.223
00:00:07.641	0.223
00:00:07.643	0.231
00:00:07.644	0.238
00:00:07.645	0.238
00:00:07.647	0.231
00:00:07.648	0.223
00:00:07.650	0.215
00:00:07.651	0.223
00:00:07.652	0.223
00:00:07.654	0.223
00:00:07.655	0.223
00:00:07.656	0.231
00:00:07.658	0.231
00:00:07.659	0.238
00:00:07.661	0.238
00:00:07.662	0.246
00:00:07.663	0.246
00:00:07.665	0.254
00:00:07.666	0.254
00:00:07.668	0.254
00:00:07.669	0.269
00:00:07.670	0.277
00:00:07.672	0.269
00:00:07.673	0.277
00:00:07.675	0.269
00:00:07.676	0.269
00:00:07.677	0.262
00:00:07.679	0.262
00:00:07.680	0.262
00:00:07.681	0.269
00:00:07.683	0.269
00:00:07.684	0.262
00:00:07.686	0.254
00:00:07.687	0.254
00:00:07.688	0.254
00:00:07.690	0.254
00:00:07.691	0.254
00:00:07.693	0.254
00:00:07.694	0.254
00:00:07.695	0.269
00:00:07.697	0.277
00:00:07.698	0.277
00:00:07.700	0.277
00:00:07.701	0.277
00:00:07.702	0.277
00:00:07.704	0.269
00:00:07.705	0.285
00:00:07.706	0.285
00:00:07.708	0.285
00:00:07.709	0.292
00:00:07.711	0.300
00:00:07.712	0.292
00:00:07.713	0.300
00:00:07.715	0.315
00:00:07.716	0.300
00:00:07.718	0.300
00:00:07.719	0.300
00:00:07.720	0.300
00:00:07.722	0.300
00:00:07.723	0.308
00:00:07.725	0.308
00:00:07.726	0.292
00:00:07.727	0.292
00:00:07.729	0.300
00:00:07.730	0.308
00:00:07.731	0.315
00:00:07.733	0.308
00:00:07.734	0.315
00:00:07.736	0.315
00:00:07.737	0.315
00:00:07.738	0.323
00:00:07.740	0.331
00:00:07.741	0.315
00:00:07.743	0.308
00:00:07.744	0.300
00:00:07.745	0.323
00:00:07.747	0.323
00:00:07.748	0.315
00:00:07.750	0.315
00:00:07.751	0.300
00:00:07.752	0.308
00:00:07.754	0.323
00:00:07.755	0.308
00:00:07.756	0.292
00:00:07.758	0.292
00:00:07.759	0.285
00:00:07.761	0.285
00:00:07.762	0.285
00:00:07.763	0.292
00:00:07.765	0.285
00:00:07.766	0.277
00:00:07.768	0.269
00:00:07.769	0.269
00:00:07.770	0.262
00:00:07.772	0.262
00:00:07.773	0.254
00:00:07.775	0.262
00:00:07.776	0.262
00:00:07.777	0.262
00:00:07.779	0.262
00:00:07.780	0.262
00:00:07.781	0.246
00:00:07.783	0.238
00:00:07.784	0.231
00:00:07.786	0.231
00:00:07.787	0.223
00:00:07.788	0.200
00:00:07.790	0.208
00:00:07.791	0.215
00:00:07.793	0.223
00:00:07.794	0.215
00:00:07.795	0.215
00:00:07.797	0.208
00:00:07.798	0.208
00:00:07.800	0.208
00:00:07.801	0.215
00:00:07.802	0.215
00:00:07.804	0.215
00:00:07.805	0.215
00:00:07.806	0.208
00:00:07.808	0.215
00:00:07.809	0.223
00:00:07.811	0.215
00:00:07.812	0.215
00:00:07.813	0.231
00:00:07.815	0.231
00:00:07.816	0.215
00:00:07.818	0.215
00:00:07.819	0.223
00:00:07.820	0.223
00:00:07.822	0.215
00:00:07.823	0.231
00:00:07.825	0.238
00:00:07.826	0.246
00:00:07.827	0.238
00:00:07.829	0.246
00:00:07.830	0.246
00:00:07.831	0.231
00:00:07.833	0.238
00:00:07.834	0.231
00:00:07.836	0.223
00:00:07.837	0.246
00:00:07.838	0.262
00:00:07.840	0.277
00:00:07.841	0.285
00:00:07.843	0.292
00:00:07.844	0.308
00:00:07.845	0.308
00:00:07.847	0.331
00:00:07.848	0.354
00:00:07.850	0.369
00:00:07.851	0.369
00:00:07.852	0.400
00:00:07.854	0.423
00:00:07.855	0.438
00:00:07.856	0.446
00:00:07.858	0.469
00:00:07.859	0.492
00:00:07.861	0.515
00:00:07.862	0.546
00:00:07.863	0.562
00:00:07.865	0.562
00:00:07.866	0.569
00:00:07.868	0.569
00:00:07.869	0.554
00:00:07.870	0.554
00:00:07.872	0.569
00:00:07.873	0.546
00:00:07.875	0.538
00:00:07.876	0.546
00:00:07.877	0.500
00:00:07.879	0.469
00:00:07.880	0.462
00:00:07.881	0.446
00:00:07.883	0.423
00:00:07.884	0.392
00:00:07.886	0.369
00:00:07.887	0.377
00:00:07.888	0.377
00:00:07.890	0.377
00:00:07.891	0.369
00:00:07.893	0.369
00:00:07.894	0.377
00:00:07.895	0.346
00:00:07.897	0.354
00:00:07.898	0.362
00:00:07.900	0.346
00:00:07.901	0.331
00:00:07.902	0.346
00:00:07.904	0.346
00:00:07.905	0.331
00:00:07.906	0.315
00:00:07.908	0.315
00:00:07.909	0.315
00:00:07.911	0.331
00:00:07.912	0.315
00:00:07.913	0.308
00:00:07.915	0.308
00:00:07.916	0.308
00:00:07.918	0.285
00:00:07.919	0.277
00:00:07.920	0.269
00:00:07.922	0.262
00:00:07.923	0.246
00:00:07.925	0.238
00:00:07.926	0.238
00:00:07.927	0.246
00:00:07.929	0.254
00:00:07.930	0.246
00:00:07.931	0.238
00:00:07.933	0.231
00:00:07.934	0.223
00:00:07.936	0.215
00:00:07.937	0.223
00:00:07.938	0.215
00:00:07.940	0.200
00:00:07.941	0.208
00:00:07.943	0.208
00:00:07.944	0.200
00:00:07.945	0.208
00:00:07.947	0.215
00:00:07.948	0.208
00:00:07.950	0.208
00:00:07.951	0.208
00:00:07.952	0.208
00:00:07.954	0.208
00:00:07.955	0.215
00:00:07.956	0.208
00:00:07.958	0.208
00:00:07.959	0.208
00:00:07.961	0.215
00:00:07.962	0.215
00:00:07.963	0.215
00:00:07.965	0.200
00:00:07.966	0.208
00:00:07.968	0.208
00:00:07.969	0.208
00:00:07.970	0.200
00:00:07.972	0.208
00:00:07.973	0.208
00:00:07.975	0.192
00:00:07.976	0.192
00:00:07.977	0.200
00:00:07.979	0.192
00:00:07.980	0.192
00:00:07.981	0.192
00:00:07.983	0.192
00:00:07.984	0.185
00:00:07.986	0.192
00:00:07.987	0.192
00:00:07.988	0.192
00:00:07.990	0.192
00:00:07.991	0.192
00:00:07.993	0.208
00:00:07.994	0.215
00:00:07.995	0.215
00:00:07.997	0.208
00:00:07.998	0.200
00:00:08.000	0.215
00:00:08.001	0.215
00:00:08.002	0.215
00:00:08.004	0.215
00:00:08.005	0.200
00:00:08.006	0.200
00:00:08.008	0.208
00:00:08.009	0.208
00:00:08.011	0.200
00:00:08.012	0.208
00:00:08.013	0.215
00:00:08.015	0.200
00:00:08.016	0.192
00:00:08.018	0.200
00:00:08.019	0.200
00:00:08.020	0.200
00:00:08.022	0.215
00:00:08.023	0.208
00:00:08.025	0.200
00:00:08.026	0.208
00:00:08.027	0.215
00:00:08.029	0.208
00:00:08.030	0.215
00:00:08.031	0.208
00:00:08.033	0.208
00:00:08.034	0.208
00:00:08.036	0.200
00:00:08.037	0.200
00:00:08.038	0.200
00:00:08.040	0.200
00:00:08.041	0.185
00:00:08.043	0.185
00:00:08.044	0.192
00:00:08.045	0.185
00:00:08.047	0.185
00:00:08.048	0.192
00:00:08.050	0.185
00:00:08.051	0.185
00:00:08.052	0.192
00:00:08.054	0.192
00:00:08.055	0.177
00:00:08.056	0.185
00:00:08.058	0.185
00:00:08.059	0.169
00:00:08.061	0.169
00:00:08.062	0.177
00:00:08.063	0.177
00:00:08.065	0.177
00:00:08.066	0.177
00:00:08.068	0.177
00:00:08.069	0.169
00:00:08.070	0.177
00:00:08.072	0.177
00:00:08.073	0.177
00:00:08.075	0.177
00:00:08.076	0.177
00:00:08.077	0.185
00:00:08.079	0.192
00:00:08.080	0.200
00:00:08.081	0.185
00:00:08.083	0.169
00:00:08.084	0.169
00:00:08.086	0.169
00:00:08.087	0.162
00:00:08.088	0.162
00:00:08.090	0.162
00:00:08.091	0.162
00:00:08.093	0.154
00:00:08.094	0.162
00:00:08.095	0.162
00:00:08.097	0.154
00:00:08.098	0.146
00:00:08.100	0.146
00:00:08.101	0.138
00:00:08.102	0.131
00:00:08.104	0.138
00:00:08.105	0.131
00:00:08.106	0.138
00:00:08.108	0.138
00:00:08.109	0.123
00:00:08.111	0.123
00:00:08.112	0.115
00:00:08.113	0.123
00:00:08.115	0.115
00:00:08.116	0.123
00:00:08.118	0.123
00:00:08.119	0.108
00:00:08.120	0.100
00:00:08.122	0.108
00:00:08.123	0.092
00:00:08.125	0.092
00:00:08.126	0.100
00:00:08.127	0.085
00:00:08.129	0.077
00:00:08.130	0.092
00:00:08.131	0.085
00:00:08.133	0.069
00:00:08.134	0.069
00:00:08.136	0.069
00:00:08.137	0.069
00:00:08.138	0.085
00:00:08.140	0.092
00:00:08.141	0.085
00:00:08.143	0.092
00:00:08.144	0.092
00:00:08.145	0.092
00:00:08.147	0.100
00:00:08.148	0.100
00:00:08.150	0.100
00:00:08.151	0.108
00:00:08.152	0.108
00:00:08.154	0.108
00:00:08.155	0.115
00:00:08.156	0.115
00:00:08.158	0.115
00:00:08.159	0.100
00:00:08.161	0.108
00:00:08.162	0.115
00:00:08.163	0.115
00:00:08.165	0.115
00:00:08.166	0.115
00:00:08.168	0.108
00:00:08.169	0.115
00:00:08.170	0.115
00:00:08.172	0.131
00:00:08.173	0.131
00:00:08.175	0.131
00:00:08.176	0.131
00:00:08.177	0.138
00:00:08.179	0.138
00:00:08.180	0.146
00:00:08.181	0.146
00:00:08.183	0.138
00:00:08.184	0.162
00:00:08.186	0.169
00:00:08.187	0.169
00:00:08.188	0.169
00:00:08.190	0.169
00:00:08.191	0.177
00:00:08.193	0.169
00:00:08.194	0.185
00:00:08.195	0.192
00:00:08.197	0.177
00:00:08.198	0.185
00:00:08.200	0.192
00:00:08.201	0.192
00:00:08.202	0.192
00:00:08.204	0.200
00:00:08.205	0.208
00:00:08.206	0.200
00:00:08.208	0.200
00:00:08.209	0.200
00:00:08.211	0.192
00:00:08.212	0.200
00:00:08.213	0.208
00:00:08.215	0.185
00:00:08.216	0.200
00:00:08.218	0.200
00:00:08.219	0.200
00:00:08.220	0.192
00:00:08.222	0.200
00:00:08.223	0.208
00:00:08.225	0.200
00:00:08.226	0.208
00:00:08.227	0.208
00:00:08.229	0.208
00:00:08.230	0.215
00:00:08.231	0.215
00:00:08.233	0.215
00:00:08.234	0.223
00:00:08.236	0.231
00:00:08.237	0.223
00:00:08.238	0.208
00:00:08.240	0.215
00:00:08.241	0.208
00:00:08.243	0.200
00:00:08.244	0.192
00:00:08.245	0.192
00:00:08.247	0.208
00:00:08.248	0.200
00:00:08.250	0.200
00:00:08.251	0.208
00:00:08.252	0.200
00:00:08.254	0.200
00:00:08.255	0.200
00:00:08.256	0.192
00:00:08.258	0.200
00:00:08.259	0.208
00:00:08.261	0.208
00:00:08.262	0.215
00:00:08.263	0.215
00:00:08.265	0.215
00:00:08.266	0.215
00:00:08.268	0.208
00:00:08.269	0.208
00:00:08.270	0.200
00:00:08.272	0.208
00:00:08.273	0.208
00:00:08.275	0.200
00:00:08.276	0.208
00:00:08.277	0.215
00:00:08.279	0.215
00:00:08.280	0.208
00:00:08.281	0.208
00:00:08.283	0.208
00:00:08.284	0.208
00:00:08.286	0.208
00:00:08.287	0.208
00:00:08.288	0.215
00:00:08.290	0.223
00:00:08.291	0.223
00:00:08.293	0.208
00:00:08.294	0.208
00:00:08.295	0.223
00:00:08.297	0.223
00:00:08.298	0.200
00:00:08.300	0.200
00:00:08.301	0.208
00:00:08.302	0.208
00:00:08.304	0.208
00:00:08.305	0.208
00:00:08.306	0.208
00:00:08.308	0.200
00:00:08.309	0.208
00:00:08.311	0.223
00:00:08.312	0.231
00:00:08.313	0.223
00:00:08.315	0.231
00:00:08.316	0.246
00:00:08.318	0.246
00:00:08.319	0.238
00:00:08.320	0.238
00:00:08.322	0.238
00:00:08.323	0.231
00:00:08.325	0.231
00:00:08.326	0.231
00:00:08.327	0.238
00:00:08.329	0.231
00:00:08.330	0.223
00:00:08.331	0.223
00:00:08.333	0.215
00:00:08.334	0.215
00:00:08.336	0.223
00:00:08.337	0.223
00:00:08.338	0.215
00:00:08.340	0.223
00:00:08.341	0.231
00:00:08.343	0.231
00:00:08.344	0.238
00:00:08.345	0.238
00:00:08.347	0.231
00:00:08.348	0.231
00:00:08.350	0.231
00:00:08.351	0.231
00:00:08.352	0.223
00:00:08.354	0.223
00:00:08.355	0.231
00:00:08.356	0.223
00:00:08.358	0.215
00:00:08.359	0.223
00:00:08.361	0.231
00:00:08.362	0.223
00:00:08.363	0.231
00:00:08.365	0.231
00:00:08.366	0.238
00:00:08.368	0.262
00:00:08.369	0.285
00:00:08.370	0.300
00:00:08.372	0.315
00:00:08.373	0.323
00:00:08.375	0.338
00:00:08.376	0.331
00:00:08.377	0.331
00:00:08.379	0.346
00:00:08.380	0.354
00:00:08.381	0.346
00:00:08.383	0.346
00:00:08.384	0.362
00:00:08.386	0.338
00:00:08.387	0.300
00:00:08.388	0.292
00:00:08.390	0.262
00:00:08.391	0.231
00:00:08.393	0.223
00:00:08.394	0.215
00:00:08.395	0.169
00:00:08.397	0.123
00:00:08.398	0.092
00:00:08.400	0.046
00:00:08.401	0.008
00:00:08.402	-0.023
00:00:08.404	-0.069
00:00:08.405	-0.123
00:00:08.406	-0.185
00:00:08.408	-0.238
00:00:08.409	-0.308
00:00:08.411	-0.354
00:00:08.412	-0.415
00:00:08.413	-0.477
00:00:08.415	-0.523
00:00:08.416	-0.508
00:00:08.418	-0.477
00:00:08.419	-0.462
00:00:08.420	-0.462
00:00:08.422	-0.446
00:00:08.423	-0.446
00:00:08.425	-0.438
00:00:08.426	-0.400
00:00:08.427	-0.369
00:00:08.429	-0.346
00:00:08.430	-0.315
00:00:08.431	-0.285
00:00:08.433	-0.269
00:00:08.434	-0.231
00:00:08.436	-0.200
00:00:08.437	-0.146
00:00:08.438	-0.092
00:00:08.440	-0.062
00:00:08.441	-0.023
00:00:08.443	0.038
00:00:08.444	0.085
00:00:08.445	0.108
00:00:08.447	0.100
00:00:08.448	0.108
00:00:08.450	0.138
00:00:08.451	0.146
00:00:08.452	0.146
00:00:08.454	0.162
00:00:08.455	0.169
00:00:08.456	0.169
00:00:08.458	0.177
00:00:08.459	0.200
00:00:08.461	0.208
00:00:08.462	0.208
00:00:08.463	0.215
00:00:08.465	0.215
00:00:08.466	0.223
00:00:08.468	0.223
00:00:08.469	0.223
00:00:08.470	0.223
00:00:08.472	0.215
00:00:08.473	0.215
00:00:08.475	0.223
00:00:08.476	0.223
00:00:08.477	0.231
00:00:08.479	0.238
00:00:08.480	0.238
00:00:08.481	0.238
00:00:08.483	0.246
00:00:08.484	0.254
00:00:08.486	0.246
00:00:08.487	0.246
00:00:08.488	0.246
00:00:08.490	0.246
00:00:08.491	0.246
00:00:08.493	0.254
00:00:08.494	0.254
00:00:08.495	0.254
00:00:08.497	0.246
00:00:08.498	0.254
00:00:08.500	0.246
00:00:08.501	0.262
00:00:08.502	0.262
00:00:08.504	0.269
00:00:08.505	0.285
00:00:08.506	0.285
00:00:08.508	0.262
00:00:08.509	0.254
00:00:08.511	0.269
00:00:08.512	0.285
00:00:08.513	0.269
00:00:08.515	0.246
00:00:08.516	0.238
00:00:08.518	0.262
00:00:08.519	0.262
00:00:08.520	0.254
00:00:08.522	0.254
00:00:08.523	0.246
00:00:08.525	0.254
00:00:08.526	0.269
00:00:08.527	0.269
00:00:08.529	0.277
00:00:08.530	0.277
00:00:08.531	0.269
00:00:08.533	0.269
00:00:08.534	0.285
00:00:08.536	0.285
00:00:08.537	0.277
00:00:08.538	0.277
00:00:08.540	0.269
00:00:08.541	0.277
00:00:08.543	0.277
00:00:08.544	0.285
00:00:08.545	0.285
00:00:08.547	0.285
00:00:08.548	0.277
00:00:08.550	0.277
00:00:08.551	0.277
00:00:08.552	0.277
00:00:08.554	0.292
00:00:08.555	0.285
00:00:08.556	0.277
00:00:08.558	0.277
00:00:08.559	0.277
00:00:08.561	0.269
00:00:08.562	0.285
00:00:08.563	0.300
00:00:08.565	0.285
00:00:08.566	0.292
00:00:08.568	0.300
00:00:08.569	0.315
00:00:08.570	0.315
00:00:08.572	0.323
00:00:08.573	0.323
00:00:08.575	0.323
00:00:08.576	0.323
00:00:08.577	0.331
00:00:08.579	0.331
00:00:08.580	0.315
00:00:08.581	0.308
00:00:08.583	0.308
00:00:08.584	0.315
00:00:08.586	0.315
00:00:08.587	0.315
00:00:08.588	0.308
00:00:08.590	0.315
00:00:08.591	0.323
00:00:08.593	0.338
00:00:08.594	0.338
00:00:08.595	0.331
00:00:08.597	0.338
00:00:08.598	0.354
00:00:08.600	0.362
00:00:08.601	0.369
00:00:08.602	0.377
00:00:08.604	0.392
00:00:08.605	0.392
00:00:08.606	0.392
00:00:08.608	0.392
00:00:08.609	0.385
00:00:08.611	0.400
00:00:08.612	0.408
00:00:08.613	0.415
00:00:08.615	0.400
00:00:08.616	0.408
00:00:08.618	0.415
00:00:08.619	0.415
00:00:08.620	0.415
00:00:08.622	0.415
00:00:08.623	0.423
00:00:08.625	0.423
00:00:08.626	0.423
00:00:08.627	0.431
00:00:08.629	0.431
00:00:08.630	0.454
00:00:08.631	0.462
00:00:08.633	0.454
00:00:08.634	0.469
00:00:08.636	0.469
00:00:08.637	0.469
00:00:08.638	0.469
00:00:08.640	0.462
00:00:08.641	0.454
00:00:08.643	0.454
00:00:08.644	0.477
00:00:08.645	0.469
00:00:08.647	0.462
00:00:08.648	0.469
00:00:08.650	0.477
00:00:08.651	0.477
00:00:08.652	0.477
00:00:08.654	0.477
00:00:08.655	0.469
00:00:08.656	0.462
00:00:08.658	0.469
00:00:08.659	0.469
00:00:08.661	0.454
00:00:08.662	0.454
00:00:08.663	0.462
00:00:08.665	0.462
00:00:08.666	0.446
00:00:08.668	0.454
00:00:08.669	0.462
00:00:08.670	0.454
00:00:08.672	0.454
00:00:08.673	0.454
00:00:08.675	0.446
00:00:08.676	0.438
00:00:08.677	0.446
00:00:08.679	0.431
00:00:08.680	0.423
00:00:08.681	0.415
00:00:08.683	0.423
00:00:08.684	0.415
00:00:08.686	0.415
00:00:08.687	0.415
00:00:08.688	0.408
00:00:08.690	0.400
00:00:08.691	0.400
00:00:08.693	0.408
00:00:08.694	0.400
00:00:08.695	0.377
00:00:08.697	0.377
00:00:08.698	0.377
00:00:08.700	0.377
00:00:08.701	0.377
00:00:08.702	0.354
00:00:08.704	0.362
00:00:08.705	0.362
00:00:08.706	0.323
00:00:08.708	0.323
00:00:08.709	0.338
00:00:08.711	0.346
00:00:08.712	0.331
00:00:08.713	0.308
00:00:08.715	0.300
00:00:08.716	0.308
00:00:08.718	0.300
00:00:08.719	0.285
00:00:08.720	0.285
00:00:08.722	0.285
00:00:08.723	0.269
00:00:08.725	0.269
00:00:08.726	0.269
00:00:08.727	0.254
00:00:08.729	0.269
00:00:08.730	0.262
00:00:08.731	0.246
00:00:08.733	0.246
00:00:08.734	0.246
00:00:08.736	0.254
00:00:08.737	0.246
00:00:08.738	0.238
00:00:08.740	0.238
00:00:08.741	0.238
00:00:08.743	0.246
00:00:08.744	0.238
00:00:08.745	0.231
00:00:08.747	0.231
00:00:08.748	0.238
00:00:08.750	0.215
00:00:08.751	0.215
00:00:08.752	0.215
00:00:08.754	0.215
00:00:08.755	0.208
00:00:08.756	0.208
